index	ts	t	weight	tr
[#]	[°C]	[s]	[mg]	[°C]
723	1.30263e+02	7.23000e+02	2.04017e+00	1.31000e+02
724	1.30603e+02	7.24000e+02	2.04016e+00	1.31333e+02
725	1.30925e+02	7.25000e+02	2.04015e+00	1.31667e+02
726	1.31260e+02	7.26000e+02	2.04014e+00	1.32000e+02
727	1.31582e+02	7.27000e+02	2.04013e+00	1.32333e+02
728	1.31919e+02	7.28000e+02	2.04012e+00	1.32667e+02
729	1.32261e+02	7.29000e+02	2.04011e+00	1.33000e+02
730	1.32590e+02	7.30000e+02	2.04009e+00	1.33333e+02
731	1.32918e+02	7.31000e+02	2.04008e+00	1.33667e+02
732	1.33258e+02	7.32000e+02	2.04007e+00	1.34000e+02
733	1.33588e+02	7.33000e+02	2.04005e+00	1.34333e+02
734	1.33918e+02	7.34000e+02	2.04004e+00	1.34667e+02
735	1.34248e+02	7.35000e+02	2.04003e+00	1.35000e+02
736	1.34577e+02	7.36000e+02	2.04003e+00	1.35333e+02
737	1.34918e+02	7.37000e+02	2.04002e+00	1.35667e+02
738	1.35242e+02	7.38000e+02	2.04001e+00	1.36000e+02
739	1.35570e+02	7.39000e+02	2.04001e+00	1.36333e+02
740	1.35911e+02	7.40000e+02	2.04001e+00	1.36667e+02
741	1.36238e+02	7.41000e+02	2.04001e+00	1.37000e+02
742	1.36573e+02	7.42000e+02	2.04001e+00	1.37333e+02
743	1.36909e+02	7.43000e+02	2.04001e+00	1.37667e+02
744	1.37236e+02	7.44000e+02	2.04001e+00	1.38000e+02
745	1.37580e+02	7.45000e+02	2.04001e+00	1.38333e+02
746	1.37918e+02	7.46000e+02	2.04000e+00	1.38667e+02
747	1.38241e+02	7.47000e+02	2.04000e+00	1.39000e+02
748	1.38568e+02	7.48000e+02	2.03999e+00	1.39333e+02
749	1.38899e+02	7.49000e+02	2.03997e+00	1.39667e+02
750	1.39237e+02	7.50000e+02	2.03996e+00	1.40000e+02
751	1.39580e+02	7.51000e+02	2.03994e+00	1.40333e+02
752	1.39909e+02	7.52000e+02	2.03992e+00	1.40667e+02
753	1.40228e+02	7.53000e+02	2.03991e+00	1.41000e+02
754	1.40564e+02	7.54000e+02	2.03989e+00	1.41333e+02
755	1.40900e+02	7.55000e+02	2.03988e+00	1.41667e+02
756	1.41240e+02	7.56000e+02	2.03987e+00	1.42000e+02
757	1.41569e+02	7.57000e+02	2.03987e+00	1.42333e+02
758	1.41913e+02	7.58000e+02	2.03986e+00	1.42667e+02
759	1.42242e+02	7.59000e+02	2.03986e+00	1.43000e+02
760	1.42579e+02	7.60000e+02	2.03987e+00	1.43333e+02
761	1.42909e+02	7.61000e+02	2.03987e+00	1.43667e+02
762	1.43238e+02	7.62000e+02	2.03986e+00	1.44000e+02
763	1.43559e+02	7.63000e+02	2.03985e+00	1.44333e+02
764	1.43918e+02	7.64000e+02	2.03984e+00	1.44667e+02
765	1.44253e+02	7.65000e+02	2.03982e+00	1.45000e+02
766	1.44569e+02	7.66000e+02	2.03981e+00	1.45333e+02
767	1.44914e+02	7.67000e+02	2.03979e+00	1.45667e+02
768	1.45247e+02	7.68000e+02	2.03978e+00	1.46000e+02
769	1.45583e+02	7.69000e+02	2.03976e+00	1.46333e+02
770	1.45914e+02	7.70000e+02	2.03975e+00	1.46667e+02
771	1.46252e+02	7.71000e+02	2.03974e+00	1.47000e+02
772	1.46587e+02	7.72000e+02	2.03972e+00	1.47333e+02
773	1.46915e+02	7.73000e+02	2.03971e+00	1.47667e+02
774	1.47254e+02	7.74000e+02	2.03969e+00	1.48000e+02
775	1.47583e+02	7.75000e+02	2.03968e+00	1.48333e+02
776	1.47916e+02	7.76000e+02	2.03966e+00	1.48667e+02
777	1.48242e+02	7.77000e+02	2.03964e+00	1.49000e+02
778	1.48585e+02	7.78000e+02	2.03962e+00	1.49333e+02
779	1.48919e+02	7.79000e+02	2.03961e+00	1.49667e+02
780	1.49255e+02	7.80000e+02	2.03959e+00	1.50000e+02
781	1.49601e+02	7.81000e+02	2.03958e+00	1.50333e+02
782	1.49925e+02	7.82000e+02	2.03957e+00	1.50667e+02
783	1.50254e+02	7.83000e+02	2.03956e+00	1.51000e+02
784	1.50596e+02	7.84000e+02	2.03956e+00	1.51333e+02
785	1.50928e+02	7.85000e+02	2.03956e+00	1.51667e+02
786	1.51259e+02	7.86000e+02	2.03955e+00	1.52000e+02
787	1.51589e+02	7.87000e+02	2.03954e+00	1.52333e+02
788	1.51932e+02	7.88000e+02	2.03954e+00	1.52667e+02
789	1.52262e+02	7.89000e+02	2.03953e+00	1.53000e+02
790	1.52611e+02	7.90000e+02	2.03951e+00	1.53333e+02
791	1.52936e+02	7.91000e+02	2.03950e+00	1.53667e+02
792	1.53282e+02	7.92000e+02	2.03948e+00	1.54000e+02
793	1.53599e+02	7.93000e+02	2.03946e+00	1.54333e+02
794	1.53937e+02	7.94000e+02	2.03944e+00	1.54667e+02
795	1.54269e+02	7.95000e+02	2.03942e+00	1.55000e+02
796	1.54611e+02	7.96000e+02	2.03941e+00	1.55333e+02
797	1.54935e+02	7.97000e+02	2.03939e+00	1.55667e+02
798	1.55291e+02	7.98000e+02	2.03937e+00	1.56000e+02
799	1.55622e+02	7.99000e+02	2.03935e+00	1.56333e+02
800	1.55943e+02	8.00000e+02	2.03933e+00	1.56667e+02
801	1.56279e+02	8.01000e+02	2.03930e+00	1.57000e+02
802	1.56617e+02	8.02000e+02	2.03928e+00	1.57333e+02
803	1.56957e+02	8.03000e+02	2.03925e+00	1.57667e+02
804	1.57283e+02	8.04000e+02	2.03922e+00	1.58000e+02
805	1.57626e+02	8.05000e+02	2.03920e+00	1.58333e+02
806	1.57956e+02	8.06000e+02	2.03918e+00	1.58667e+02
807	1.58284e+02	8.07000e+02	2.03916e+00	1.59000e+02
808	1.58630e+02	8.08000e+02	2.03914e+00	1.59333e+02
809	1.58965e+02	8.09000e+02	2.03913e+00	1.59667e+02
810	1.59289e+02	8.10000e+02	2.03911e+00	1.60000e+02
811	1.59631e+02	8.11000e+02	2.03909e+00	1.60333e+02
812	1.59960e+02	8.12000e+02	2.03907e+00	1.60667e+02
813	1.60292e+02	8.13000e+02	2.03906e+00	1.61000e+02
814	1.60631e+02	8.14000e+02	2.03904e+00	1.61333e+02
815	1.60957e+02	8.15000e+02	2.03903e+00	1.61667e+02
816	1.61304e+02	8.16000e+02	2.03902e+00	1.62000e+02
817	1.61641e+02	8.17000e+02	2.03902e+00	1.62333e+02
818	1.61980e+02	8.18000e+02	2.03901e+00	1.62667e+02
819	1.62318e+02	8.19000e+02	2.03901e+00	1.63000e+02
820	1.62644e+02	8.20000e+02	2.03901e+00	1.63333e+02
821	1.62981e+02	8.21000e+02	2.03901e+00	1.63667e+02
822	1.63317e+02	8.22000e+02	2.03901e+00	1.64000e+02
823	1.63656e+02	8.23000e+02	2.03901e+00	1.64333e+02
824	1.63989e+02	8.24000e+02	2.03900e+00	1.64667e+02
825	1.64320e+02	8.25000e+02	2.03899e+00	1.65000e+02
826	1.64661e+02	8.26000e+02	2.03898e+00	1.65333e+02
827	1.65004e+02	8.27000e+02	2.03896e+00	1.65667e+02
828	1.65342e+02	8.28000e+02	2.03895e+00	1.66000e+02
829	1.65674e+02	8.29000e+02	2.03893e+00	1.66333e+02
830	1.66007e+02	8.30000e+02	2.03892e+00	1.66667e+02
831	1.66343e+02	8.31000e+02	2.03891e+00	1.67000e+02
832	1.66682e+02	8.32000e+02	2.03890e+00	1.67333e+02
833	1.67000e+02	8.33000e+02	2.03889e+00	1.67667e+02
834	1.67336e+02	8.34000e+02	2.03888e+00	1.68000e+02
835	1.67680e+02	8.35000e+02	2.03887e+00	1.68333e+02
836	1.68018e+02	8.36000e+02	2.03887e+00	1.68667e+02
837	1.68354e+02	8.37000e+02	2.03886e+00	1.69000e+02
838	1.68683e+02	8.38000e+02	2.03885e+00	1.69333e+02
839	1.69031e+02	8.39000e+02	2.03884e+00	1.69667e+02
840	1.69360e+02	8.40000e+02	2.03883e+00	1.70000e+02
841	1.69703e+02	8.41000e+02	2.03882e+00	1.70333e+02
842	1.70035e+02	8.42000e+02	2.03881e+00	1.70667e+02
843	1.70364e+02	8.43000e+02	2.03880e+00	1.71000e+02
844	1.70702e+02	8.44000e+02	2.03879e+00	1.71333e+02
845	1.71037e+02	8.45000e+02	2.03877e+00	1.71667e+02
846	1.71368e+02	8.46000e+02	2.03875e+00	1.72000e+02
847	1.71691e+02	8.47000e+02	2.03873e+00	1.72333e+02
848	1.72041e+02	8.48000e+02	2.03869e+00	1.72667e+02
849	1.72378e+02	8.49000e+02	2.03865e+00	1.73000e+02
850	1.72723e+02	8.50000e+02	2.03861e+00	1.73333e+02
851	1.73057e+02	8.51000e+02	2.03856e+00	1.73667e+02
852	1.73383e+02	8.52000e+02	2.03849e+00	1.74000e+02
853	1.73713e+02	8.53000e+02	2.03844e+00	1.74333e+02
854	1.74057e+02	8.54000e+02	2.03839e+00	1.74667e+02
855	1.74390e+02	8.55000e+02	2.03833e+00	1.75000e+02
856	1.74729e+02	8.56000e+02	2.03828e+00	1.75333e+02
857	1.75072e+02	8.57000e+02	2.03823e+00	1.75667e+02
858	1.75409e+02	8.58000e+02	2.03818e+00	1.76000e+02
859	1.75731e+02	8.59000e+02	2.03813e+00	1.76333e+02
860	1.76085e+02	8.60000e+02	2.03809e+00	1.76667e+02
861	1.76414e+02	8.61000e+02	2.03805e+00	1.77000e+02
862	1.76756e+02	8.62000e+02	2.03802e+00	1.77333e+02
863	1.77095e+02	8.63000e+02	2.03798e+00	1.77667e+02
864	1.77426e+02	8.64000e+02	2.03795e+00	1.78000e+02
865	1.77772e+02	8.65000e+02	2.03792e+00	1.78333e+02
866	1.78102e+02	8.66000e+02	2.03788e+00	1.78667e+02
867	1.78436e+02	8.67000e+02	2.03784e+00	1.79000e+02
868	1.78769e+02	8.68000e+02	2.03778e+00	1.79333e+02
869	1.79100e+02	8.69000e+02	2.03774e+00	1.79667e+02
870	1.79441e+02	8.70000e+02	2.03769e+00	1.80000e+02
871	1.79782e+02	8.71000e+02	2.03764e+00	1.80333e+02
872	1.80122e+02	8.72000e+02	2.03759e+00	1.80667e+02
873	1.80443e+02	8.73000e+02	2.03753e+00	1.81000e+02
874	1.80791e+02	8.74000e+02	2.03748e+00	1.81333e+02
875	1.81138e+02	8.75000e+02	2.03742e+00	1.81667e+02
876	1.81469e+02	8.76000e+02	2.03735e+00	1.82000e+02
877	1.81797e+02	8.77000e+02	2.03728e+00	1.82333e+02
878	1.82140e+02	8.78000e+02	2.03721e+00	1.82667e+02
879	1.82468e+02	8.79000e+02	2.03714e+00	1.83000e+02
880	1.82807e+02	8.80000e+02	2.03705e+00	1.83333e+02
881	1.83154e+02	8.81000e+02	2.03697e+00	1.83667e+02
882	1.83486e+02	8.82000e+02	2.03689e+00	1.84000e+02
883	1.83825e+02	8.83000e+02	2.03681e+00	1.84333e+02
884	1.84164e+02	8.84000e+02	2.03671e+00	1.84667e+02
885	1.84505e+02	8.85000e+02	2.03661e+00	1.85000e+02
886	1.84841e+02	8.86000e+02	2.03651e+00	1.85333e+02
887	1.85171e+02	8.87000e+02	2.03641e+00	1.85667e+02
888	1.85515e+02	8.88000e+02	2.03629e+00	1.86000e+02
889	1.85859e+02	8.89000e+02	2.03618e+00	1.86333e+02
890	1.86180e+02	8.90000e+02	2.03606e+00	1.86667e+02
891	1.86524e+02	8.91000e+02	2.03594e+00	1.87000e+02
892	1.86867e+02	8.92000e+02	2.03582e+00	1.87333e+02
893	1.87196e+02	8.93000e+02	2.03570e+00	1.87667e+02
894	1.87533e+02	8.94000e+02	2.03557e+00	1.88000e+02
895	1.87868e+02	8.95000e+02	2.03544e+00	1.88333e+02
896	1.88203e+02	8.96000e+02	2.03530e+00	1.88667e+02
897	1.88550e+02	8.97000e+02	2.03516e+00	1.89000e+02
898	1.88892e+02	8.98000e+02	2.03503e+00	1.89333e+02
899	1.89229e+02	8.99000e+02	2.03489e+00	1.89667e+02
900	1.89563e+02	9.00000e+02	2.03475e+00	1.90000e+02
901	1.89898e+02	9.01000e+02	2.03461e+00	1.90333e+02
902	1.90232e+02	9.02000e+02	2.03446e+00	1.90667e+02
903	1.90560e+02	9.03000e+02	2.03431e+00	1.91000e+02
904	1.90898e+02	9.04000e+02	2.03413e+00	1.91333e+02
905	1.91236e+02	9.05000e+02	2.03395e+00	1.91667e+02
906	1.91590e+02	9.06000e+02	2.03377e+00	1.92000e+02
907	1.91924e+02	9.07000e+02	2.03358e+00	1.92333e+02
908	1.92262e+02	9.08000e+02	2.03337e+00	1.92667e+02
909	1.92605e+02	9.09000e+02	2.03318e+00	1.93000e+02
910	1.92940e+02	9.10000e+02	2.03299e+00	1.93333e+02
911	1.93280e+02	9.11000e+02	2.03280e+00	1.93667e+02
912	1.93611e+02	9.12000e+02	2.03262e+00	1.94000e+02
913	1.93944e+02	9.13000e+02	2.03243e+00	1.94333e+02
914	1.94292e+02	9.14000e+02	2.03225e+00	1.94667e+02
915	1.94633e+02	9.15000e+02	2.03207e+00	1.95000e+02
916	1.94967e+02	9.16000e+02	2.03189e+00	1.95333e+02
917	1.95304e+02	9.17000e+02	2.03170e+00	1.95667e+02
918	1.95640e+02	9.18000e+02	2.03151e+00	1.96000e+02
919	1.95986e+02	9.19000e+02	2.03132e+00	1.96333e+02
920	1.96323e+02	9.20000e+02	2.03111e+00	1.96667e+02
921	1.96656e+02	9.21000e+02	2.03090e+00	1.97000e+02
922	1.96998e+02	9.22000e+02	2.03068e+00	1.97333e+02
923	1.97336e+02	9.23000e+02	2.03047e+00	1.97667e+02
924	1.97686e+02	9.24000e+02	2.03023e+00	1.98000e+02
925	1.98020e+02	9.25000e+02	2.03001e+00	1.98333e+02
926	1.98359e+02	9.26000e+02	2.02979e+00	1.98667e+02
927	1.98685e+02	9.27000e+02	2.02956e+00	1.99000e+02
928	1.99032e+02	9.28000e+02	2.02934e+00	1.99333e+02
929	1.99366e+02	9.29000e+02	2.02912e+00	1.99667e+02
930	1.99725e+02	9.30000e+02	2.02889e+00	2.00000e+02
931	2.00041e+02	9.31000e+02	2.02866e+00	2.00333e+02
932	2.00381e+02	9.32000e+02	2.02843e+00	2.00667e+02
933	2.00725e+02	9.33000e+02	2.02819e+00	2.01000e+02
934	2.01058e+02	9.34000e+02	2.02795e+00	2.01333e+02
935	2.01394e+02	9.35000e+02	2.02771e+00	2.01667e+02
936	2.01735e+02	9.36000e+02	2.02745e+00	2.02000e+02
937	2.02072e+02	9.37000e+02	2.02719e+00	2.02333e+02
938	2.02422e+02	9.38000e+02	2.02693e+00	2.02667e+02
939	2.02755e+02	9.39000e+02	2.02667e+00	2.03000e+02
940	2.03092e+02	9.40000e+02	2.02640e+00	2.03333e+02
941	2.03423e+02	9.41000e+02	2.02613e+00	2.03667e+02
942	2.03755e+02	9.42000e+02	2.02588e+00	2.04000e+02
943	2.04093e+02	9.43000e+02	2.02562e+00	2.04333e+02
944	2.04434e+02	9.44000e+02	2.02538e+00	2.04667e+02
945	2.04781e+02	9.45000e+02	2.02514e+00	2.05000e+02
946	2.05115e+02	9.46000e+02	2.02490e+00	2.05333e+02
947	2.05457e+02	9.47000e+02	2.02466e+00	2.05667e+02
948	2.05780e+02	9.48000e+02	2.02443e+00	2.06000e+02
949	2.06135e+02	9.49000e+02	2.02419e+00	2.06333e+02
950	2.06471e+02	9.50000e+02	2.02394e+00	2.06667e+02
951	2.06817e+02	9.51000e+02	2.02370e+00	2.07000e+02
952	2.07142e+02	9.52000e+02	2.02345e+00	2.07333e+02
953	2.07481e+02	9.53000e+02	2.02320e+00	2.07667e+02
954	2.07823e+02	9.54000e+02	2.02295e+00	2.08000e+02
955	2.08155e+02	9.55000e+02	2.02270e+00	2.08333e+02
956	2.08493e+02	9.56000e+02	2.02245e+00	2.08667e+02
957	2.08835e+02	9.57000e+02	2.02221e+00	2.09000e+02
958	2.09168e+02	9.58000e+02	2.02195e+00	2.09333e+02
959	2.09503e+02	9.59000e+02	2.02170e+00	2.09667e+02
960	2.09842e+02	9.60000e+02	2.02145e+00	2.10000e+02
961	2.10177e+02	9.61000e+02	2.02120e+00	2.10333e+02
962	2.10527e+02	9.62000e+02	2.02094e+00	2.10667e+02
963	2.10860e+02	9.63000e+02	2.02068e+00	2.11000e+02
964	2.11193e+02	9.64000e+02	2.02042e+00	2.11333e+02
965	2.11535e+02	9.65000e+02	2.02016e+00	2.11667e+02
966	2.11870e+02	9.66000e+02	2.01990e+00	2.12000e+02
967	2.12201e+02	9.67000e+02	2.01964e+00	2.12333e+02
968	2.12552e+02	9.68000e+02	2.01938e+00	2.12667e+02
969	2.12895e+02	9.69000e+02	2.01912e+00	2.13000e+02
970	2.13222e+02	9.70000e+02	2.01886e+00	2.13333e+02
971	2.13554e+02	9.71000e+02	2.01860e+00	2.13667e+02
972	2.13901e+02	9.72000e+02	2.01833e+00	2.14000e+02
973	2.14243e+02	9.73000e+02	2.01807e+00	2.14333e+02
974	2.14573e+02	9.74000e+02	2.01781e+00	2.14667e+02
975	2.14928e+02	9.75000e+02	2.01754e+00	2.15000e+02
976	2.15258e+02	9.76000e+02	2.01728e+00	2.15333e+02
977	2.15586e+02	9.77000e+02	2.01702e+00	2.15667e+02
978	2.15934e+02	9.78000e+02	2.01676e+00	2.16000e+02
979	2.16263e+02	9.79000e+02	2.01651e+00	2.16333e+02
980	2.16606e+02	9.80000e+02	2.01627e+00	2.16667e+02
981	2.16935e+02	9.81000e+02	2.01602e+00	2.17000e+02
982	2.17279e+02	9.82000e+02	2.01578e+00	2.17333e+02
983	2.17628e+02	9.83000e+02	2.01553e+00	2.17667e+02
984	2.17950e+02	9.84000e+02	2.01528e+00	2.18000e+02
985	2.18294e+02	9.85000e+02	2.01503e+00	2.18333e+02
986	2.18639e+02	9.86000e+02	2.01478e+00	2.18667e+02
987	2.18979e+02	9.87000e+02	2.01452e+00	2.19000e+02
988	2.19313e+02	9.88000e+02	2.01425e+00	2.19333e+02
989	2.19649e+02	9.89000e+02	2.01400e+00	2.19667e+02
990	2.19986e+02	9.90000e+02	2.01375e+00	2.20000e+02
991	2.20323e+02	9.91000e+02	2.01351e+00	2.20333e+02
992	2.20661e+02	9.92000e+02	2.01327e+00	2.20667e+02
993	2.20999e+02	9.93000e+02	2.01304e+00	2.21000e+02
994	2.21327e+02	9.94000e+02	2.01280e+00	2.21333e+02
995	2.21670e+02	9.95000e+02	2.01256e+00	2.21667e+02
996	2.21996e+02	9.96000e+02	2.01231e+00	2.22000e+02
997	2.22349e+02	9.97000e+02	2.01206e+00	2.22333e+02
998	2.22683e+02	9.98000e+02	2.01181e+00	2.22667e+02
999	2.23015e+02	9.99000e+02	2.01155e+00	2.23000e+02
1000	2.23356e+02	1.00000e+03	2.01128e+00	2.23333e+02
1001	2.23687e+02	1.00100e+03	2.01100e+00	2.23667e+02
1002	2.24026e+02	1.00200e+03	2.01072e+00	2.24000e+02
1003	2.24372e+02	1.00300e+03	2.01044e+00	2.24333e+02
1004	2.24706e+02	1.00400e+03	2.01014e+00	2.24667e+02
1005	2.25056e+02	1.00500e+03	2.00984e+00	2.25000e+02
1006	2.25397e+02	1.00600e+03	2.00955e+00	2.25333e+02
1007	2.25714e+02	1.00700e+03	2.00925e+00	2.25667e+02
1008	2.26044e+02	1.00800e+03	2.00894e+00	2.26000e+02
1009	2.26391e+02	1.00900e+03	2.00864e+00	2.26333e+02
1010	2.26737e+02	1.01000e+03	2.00834e+00	2.26667e+02
1011	2.27075e+02	1.01100e+03	2.00804e+00	2.27000e+02
1012	2.27399e+02	1.01200e+03	2.00774e+00	2.27333e+02
1013	2.27742e+02	1.01300e+03	2.00745e+00	2.27667e+02
1014	2.28076e+02	1.01400e+03	2.00716e+00	2.28000e+02
1015	2.28416e+02	1.01500e+03	2.00688e+00	2.28333e+02
1016	2.28749e+02	1.01600e+03	2.00660e+00	2.28667e+02
1017	2.29083e+02	1.01700e+03	2.00632e+00	2.29000e+02
1018	2.29431e+02	1.01800e+03	2.00604e+00	2.29333e+02
1019	2.29766e+02	1.01900e+03	2.00576e+00	2.29667e+02
1020	2.30112e+02	1.02000e+03	2.00548e+00	2.30000e+02
1021	2.30440e+02	1.02100e+03	2.00521e+00	2.30333e+02
1022	2.30775e+02	1.02200e+03	2.00493e+00	2.30667e+02
1023	2.31118e+02	1.02300e+03	2.00466e+00	2.31000e+02
1024	2.31458e+02	1.02400e+03	2.00438e+00	2.31333e+02
1025	2.31801e+02	1.02500e+03	2.00410e+00	2.31667e+02
1026	2.32134e+02	1.02600e+03	2.00382e+00	2.32000e+02
1027	2.32462e+02	1.02700e+03	2.00354e+00	2.32333e+02
1028	2.32800e+02	1.02800e+03	2.00325e+00	2.32667e+02
1029	2.33146e+02	1.02900e+03	2.00296e+00	2.33000e+02
1030	2.33478e+02	1.03000e+03	2.00267e+00	2.33333e+02
1031	2.33818e+02	1.03100e+03	2.00237e+00	2.33667e+02
1032	2.34163e+02	1.03200e+03	2.00207e+00	2.34000e+02
1033	2.34498e+02	1.03300e+03	2.00177e+00	2.34333e+02
1034	2.34826e+02	1.03400e+03	2.00147e+00	2.34667e+02
1035	2.35168e+02	1.03500e+03	2.00118e+00	2.35000e+02
1036	2.35502e+02	1.03600e+03	2.00089e+00	2.35333e+02
1037	2.35843e+02	1.03700e+03	2.00060e+00	2.35667e+02
1038	2.36177e+02	1.03800e+03	2.00032e+00	2.36000e+02
1039	2.36508e+02	1.03900e+03	2.00003e+00	2.36333e+02
1040	2.36847e+02	1.04000e+03	1.99976e+00	2.36667e+02
1041	2.37186e+02	1.04100e+03	1.99948e+00	2.37000e+02
1042	2.37524e+02	1.04200e+03	1.99920e+00	2.37333e+02
1043	2.37862e+02	1.04300e+03	1.99891e+00	2.37667e+02
1044	2.38197e+02	1.04400e+03	1.99863e+00	2.38000e+02
1045	2.38521e+02	1.04500e+03	1.99834e+00	2.38333e+02
1046	2.38859e+02	1.04600e+03	1.99806e+00	2.38667e+02
1047	2.39203e+02	1.04700e+03	1.99777e+00	2.39000e+02
1048	2.39540e+02	1.04800e+03	1.99749e+00	2.39333e+02
1049	2.39873e+02	1.04900e+03	1.99720e+00	2.39667e+02
1050	2.40218e+02	1.05000e+03	1.99692e+00	2.40000e+02
1051	2.40551e+02	1.05100e+03	1.99663e+00	2.40333e+02
1052	2.40882e+02	1.05200e+03	1.99634e+00	2.40667e+02
1053	2.41219e+02	1.05300e+03	1.99605e+00	2.41000e+02
1054	2.41553e+02	1.05400e+03	1.99576e+00	2.41333e+02
1055	2.41899e+02	1.05500e+03	1.99547e+00	2.41667e+02
1056	2.42241e+02	1.05600e+03	1.99517e+00	2.42000e+02
1057	2.42574e+02	1.05700e+03	1.99487e+00	2.42333e+02
1058	2.42918e+02	1.05800e+03	1.99457e+00	2.42667e+02
1059	2.43253e+02	1.05900e+03	1.99427e+00	2.43000e+02
1060	2.43580e+02	1.06000e+03	1.99397e+00	2.43333e+02
1061	2.43925e+02	1.06100e+03	1.99368e+00	2.43667e+02
1062	2.44258e+02	1.06200e+03	1.99338e+00	2.44000e+02
1063	2.44595e+02	1.06300e+03	1.99308e+00	2.44333e+02
1064	2.44931e+02	1.06400e+03	1.99279e+00	2.44667e+02
1065	2.45270e+02	1.06500e+03	1.99250e+00	2.45000e+02
1066	2.45614e+02	1.06600e+03	1.99221e+00	2.45333e+02
1067	2.45944e+02	1.06700e+03	1.99191e+00	2.45667e+02
1068	2.46283e+02	1.06800e+03	1.99162e+00	2.46000e+02
1069	2.46609e+02	1.06900e+03	1.99133e+00	2.46333e+02
1070	2.46952e+02	1.07000e+03	1.99105e+00	2.46667e+02
1071	2.47289e+02	1.07100e+03	1.99076e+00	2.47000e+02
1072	2.47633e+02	1.07200e+03	1.99049e+00	2.47333e+02
1073	2.47967e+02	1.07300e+03	1.99021e+00	2.47667e+02
1074	2.48302e+02	1.07400e+03	1.98993e+00	2.48000e+02
1075	2.48645e+02	1.07500e+03	1.98966e+00	2.48333e+02
1076	2.48975e+02	1.07600e+03	1.98939e+00	2.48667e+02
1077	2.49317e+02	1.07700e+03	1.98911e+00	2.49000e+02
1078	2.49651e+02	1.07800e+03	1.98884e+00	2.49333e+02
1079	2.49991e+02	1.07900e+03	1.98856e+00	2.49667e+02
1080	2.50325e+02	1.08000e+03	1.98829e+00	2.50000e+02
1081	2.50663e+02	1.08100e+03	1.98801e+00	2.50333e+02
1082	2.50999e+02	1.08200e+03	1.98773e+00	2.50667e+02
1083	2.51340e+02	1.08300e+03	1.98745e+00	2.51000e+02
1084	2.51675e+02	1.08400e+03	1.98717e+00	2.51333e+02
1085	2.52012e+02	1.08500e+03	1.98689e+00	2.51667e+02
1086	2.52365e+02	1.08600e+03	1.98660e+00	2.52000e+02
1087	2.52693e+02	1.08700e+03	1.98631e+00	2.52333e+02
1088	2.53027e+02	1.08800e+03	1.98602e+00	2.52667e+02
1089	2.53353e+02	1.08900e+03	1.98573e+00	2.53000e+02
1090	2.53700e+02	1.09000e+03	1.98543e+00	2.53333e+02
1091	2.54029e+02	1.09100e+03	1.98514e+00	2.53667e+02
1092	2.54378e+02	1.09200e+03	1.98485e+00	2.54000e+02
1093	2.54714e+02	1.09300e+03	1.98456e+00	2.54333e+02
1094	2.55035e+02	1.09400e+03	1.98427e+00	2.54667e+02
1095	2.55378e+02	1.09500e+03	1.98398e+00	2.55000e+02
1096	2.55715e+02	1.09600e+03	1.98369e+00	2.55333e+02
