Index	Ts	t	Weight	Tr
[#]	[°C]	[s]	[mg]	[°C]
683	1.30484e+02	6.83000e+02	3.04453	131.5
684	1.30996e+02	6.84000e+02	3.04448	132.0
685	1.31489e+02	6.85000e+02	3.04445	132.5
686	1.32002e+02	6.86000e+02	3.04442	133.0
687	1.32492e+02	6.87000e+02	3.04439	133.5
688	1.32993e+02	6.88000e+02	3.04439	134.0
689	1.33478e+02	6.89000e+02	3.04439	134.5
690	1.33990e+02	6.90000e+02	3.0444	135.0
691	1.34485e+02	6.91000e+02	3.04442	135.5
692	1.34984e+02	6.92000e+02	3.04445	136.0
693	1.35486e+02	6.93000e+02	3.04447	136.5
694	1.35986e+02	6.94000e+02	3.04449	137.0
695	1.36480e+02	6.95000e+02	3.0445	137.5
696	1.36979e+02	6.96000e+02	3.0445	138.0
697	1.37480e+02	6.97000e+02	3.0445	138.5
698	1.37982e+02	6.98000e+02	3.04449	139.0
699	1.38476e+02	6.99000e+02	3.04448	139.5
700	1.38984e+02	7.00000e+02	3.04445	140.0
701	1.39479e+02	7.01000e+02	3.04443	140.5
702	1.39980e+02	7.02000e+02	3.0444	141.0
703	1.40482e+02	7.03000e+02	3.04437	141.5
704	1.40979e+02	7.04000e+02	3.04433	142.0
705	1.41485e+02	7.05000e+02	3.04429	142.5
706	1.41989e+02	7.06000e+02	3.04426	143.0
707	1.42488e+02	7.07000e+02	3.04424	143.5
708	1.42992e+02	7.08000e+02	3.04422	144.0
709	1.43495e+02	7.09000e+02	3.0442	144.5
710	1.43994e+02	7.10000e+02	3.04419	145.0
711	1.44493e+02	7.11000e+02	3.04418	145.5
712	1.44985e+02	7.12000e+02	3.04419	146.0
713	1.45493e+02	7.13000e+02	3.04418	146.5
714	1.45986e+02	7.14000e+02	3.04417	147.0
715	1.46495e+02	7.15000e+02	3.04415	147.5
716	1.46991e+02	7.16000e+02	3.04413	148.0
717	1.47496e+02	7.17000e+02	3.04411	148.5
718	1.48004e+02	7.18000e+02	3.04408	149.0
719	1.48501e+02	7.19000e+02	3.04405	149.5
720	1.49002e+02	7.20000e+02	3.04401	150.0
721	1.49505e+02	7.21000e+02	3.04398	150.5
722	1.50021e+02	7.22000e+02	3.04396	151.0
723	1.50511e+02	7.23000e+02	3.04393	151.5
724	1.51009e+02	7.24000e+02	3.04391	152.0
725	1.51510e+02	7.25000e+02	3.0439	152.5
726	1.52012e+02	7.26000e+02	3.04388	153.0
727	1.52530e+02	7.27000e+02	3.04386	153.5
728	1.53034e+02	7.28000e+02	3.04384	154.0
729	1.53531e+02	7.29000e+02	3.04381	154.5
730	1.54038e+02	7.30000e+02	3.04377	155.0
731	1.54538e+02	7.31000e+02	3.04373	155.5
732	1.55035e+02	7.32000e+02	3.04366	156.0
733	1.55531e+02	7.33000e+02	3.04361	156.5
734	1.56035e+02	7.34000e+02	3.04356	157.0
735	1.56536e+02	7.35000e+02	3.0435	157.5
736	1.57032e+02	7.36000e+02	3.04345	158.0
737	1.57539e+02	7.37000e+02	3.0434	158.5
738	1.58052e+02	7.38000e+02	3.04335	159.0
739	1.58554e+02	7.39000e+02	3.04331	159.5
740	1.59042e+02	7.40000e+02	3.04328	160.0
741	1.59549e+02	7.41000e+02	3.04325	160.5
742	1.60060e+02	7.42000e+02	3.04323	161.0
743	1.60547e+02	7.43000e+02	3.0432	161.5
744	1.61056e+02	7.44000e+02	3.0432	162.0
745	1.61552e+02	7.45000e+02	3.04318	162.5
746	1.62061e+02	7.46000e+02	3.04316	163.0
747	1.62555e+02	7.47000e+02	3.04314	163.5
748	1.63054e+02	7.48000e+02	3.04311	164.0
749	1.63557e+02	7.49000e+02	3.04308	164.5
750	1.64073e+02	7.50000e+02	3.04306	165.0
751	1.64564e+02	7.51000e+02	3.04303	165.5
752	1.65077e+02	7.52000e+02	3.043	166.0
753	1.65581e+02	7.53000e+02	3.04297	166.5
754	1.66083e+02	7.54000e+02	3.04293	167.0
755	1.66594e+02	7.55000e+02	3.04288	167.5
756	1.67090e+02	7.56000e+02	3.04282	168.0
757	1.67595e+02	7.57000e+02	3.04275	168.5
758	1.68100e+02	7.58000e+02	3.04269	169.0
759	1.68605e+02	7.59000e+02	3.04262	169.5
760	1.69112e+02	7.60000e+02	3.04253	170.0
761	1.69611e+02	7.61000e+02	3.04244	170.5
762	1.70132e+02	7.62000e+02	3.04237	171.0
763	1.70637e+02	7.63000e+02	3.04229	171.5
764	1.71119e+02	7.64000e+02	3.04223	172.0
765	1.71625e+02	7.65000e+02	3.04217	172.5
766	1.72135e+02	7.66000e+02	3.04211	173.0
767	1.72649e+02	7.67000e+02	3.04206	173.5
768	1.73148e+02	7.68000e+02	3.04203	174.0
769	1.73662e+02	7.69000e+02	3.04199	174.5
770	1.74154e+02	7.70000e+02	3.04194	175.0
771	1.74663e+02	7.71000e+02	3.0419	175.5
772	1.75176e+02	7.72000e+02	3.04186	176.0
773	1.75676e+02	7.73000e+02	3.04182	176.5
774	1.76186e+02	7.74000e+02	3.04178	177.0
775	1.76695e+02	7.75000e+02	3.04174	177.5
776	1.77199e+02	7.76000e+02	3.0417	178.0
777	1.77697e+02	7.77000e+02	3.04164	178.5
778	1.78205e+02	7.78000e+02	3.04158	179.0
779	1.78707e+02	7.79000e+02	3.04152	179.5
780	1.79220e+02	7.80000e+02	3.04143	180.0
781	1.79719e+02	7.81000e+02	3.04134	180.5
782	1.80218e+02	7.82000e+02	3.04124	181.0
783	1.80737e+02	7.83000e+02	3.04114	181.5
784	1.81225e+02	7.84000e+02	3.04102	182.0
785	1.81737e+02	7.85000e+02	3.0409	182.5
786	1.82237e+02	7.86000e+02	3.04079	183.0
787	1.82738e+02	7.87000e+02	3.04067	183.5
788	1.83250e+02	7.88000e+02	3.04054	184.0
789	1.83755e+02	7.89000e+02	3.04041	184.5
790	1.84256e+02	7.90000e+02	3.04029	185.0
791	1.84764e+02	7.91000e+02	3.04016	185.5
792	1.85271e+02	7.92000e+02	3.04002	186.0
793	1.85782e+02	7.93000e+02	3.03988	186.5
794	1.86279e+02	7.94000e+02	3.03974	187.0
795	1.86789e+02	7.95000e+02	3.03959	187.5
796	1.87304e+02	7.96000e+02	3.03944	188.0
797	1.87799e+02	7.97000e+02	3.03929	188.5
798	1.88303e+02	7.98000e+02	3.03913	189.0
799	1.88813e+02	7.99000e+02	3.03898	189.5
800	1.89320e+02	8.00000e+02	3.03883	190.0
801	1.89818e+02	8.01000e+02	3.03867	190.5
802	1.90343e+02	8.02000e+02	3.03851	191.0
803	1.90848e+02	8.03000e+02	3.03835	191.5
804	1.91354e+02	8.04000e+02	3.03817	192.0
805	1.91848e+02	8.05000e+02	3.038	192.5
806	1.92363e+02	8.06000e+02	3.03782	193.0
807	1.92875e+02	8.07000e+02	3.03763	193.5
808	1.93374e+02	8.08000e+02	3.03742	194.0
809	1.93872e+02	8.09000e+02	3.03722	194.5
810	1.94389e+02	8.10000e+02	3.03701	195.0
811	1.94901e+02	8.11000e+02	3.0368	195.5
812	1.95402e+02	8.12000e+02	3.03656	196.0
813	1.95919e+02	8.13000e+02	3.03633	196.5
814	1.96420e+02	8.14000e+02	3.03609	197.0
815	1.96933e+02	8.15000e+02	3.03585	197.5
816	1.97433e+02	8.16000e+02	3.03558	198.0
817	1.97943e+02	8.17000e+02	3.03531	198.5
818	1.98457e+02	8.18000e+02	3.03504	199.0
819	1.98961e+02	8.19000e+02	3.03476	199.5
820	1.99460e+02	8.20000e+02	3.03445	200.0
821	1.99973e+02	8.21000e+02	3.03414	200.5
822	2.00487e+02	8.22000e+02	3.03382	201.0
823	2.00987e+02	8.23000e+02	3.0335	201.5
824	2.01507e+02	8.24000e+02	3.03315	202.0
825	2.02014e+02	8.25000e+02	3.03281	202.5
826	2.02520e+02	8.26000e+02	3.03246	203.0
827	2.03032e+02	8.27000e+02	3.03211	203.5
828	2.03538e+02	8.28000e+02	3.03174	204.0
829	2.04045e+02	8.29000e+02	3.03136	204.5
830	2.04557e+02	8.30000e+02	3.03098	205.0
831	2.05058e+02	8.31000e+02	3.0306	205.5
832	2.05564e+02	8.32000e+02	3.03021	206.0
833	2.06067e+02	8.33000e+02	3.02982	206.5
834	2.06573e+02	8.34000e+02	3.02945	207.0
835	2.07081e+02	8.35000e+02	3.02907	207.5
836	2.07579e+02	8.36000e+02	3.0287	208.0
837	2.08099e+02	8.37000e+02	3.02831	208.5
838	2.08599e+02	8.38000e+02	3.02793	209.0
839	2.09101e+02	8.39000e+02	3.02754	209.5
840	2.09608e+02	8.40000e+02	3.02714	210.0
841	2.10103e+02	8.41000e+02	3.02674	210.5
842	2.10607e+02	8.42000e+02	3.02634	211.0
843	2.11111e+02	8.43000e+02	3.02594	211.5
844	2.11614e+02	8.44000e+02	3.02552	212.0
845	2.12117e+02	8.45000e+02	3.02512	212.5
846	2.12620e+02	8.46000e+02	3.02471	213.0
847	2.13114e+02	8.47000e+02	3.02431	213.5
848	2.13622e+02	8.48000e+02	3.02392	214.0
849	2.14136e+02	8.49000e+02	3.02353	214.5
850	2.14637e+02	8.50000e+02	3.02315	215.0
851	2.15142e+02	8.51000e+02	3.02277	215.5
852	2.15644e+02	8.52000e+02	3.02241	216.0
853	2.16147e+02	8.53000e+02	3.02203	216.5
854	2.16655e+02	8.54000e+02	3.02164	217.0
855	2.17158e+02	8.55000e+02	3.02125	217.5
856	2.17658e+02	8.56000e+02	3.02083	218.0
857	2.18168e+02	8.57000e+02	3.02042	218.5
858	2.18673e+02	8.58000e+02	3.02	219.0
859	2.19177e+02	8.59000e+02	3.01959	219.5
860	2.19688e+02	8.60000e+02	3.01915	220.0
861	2.20200e+02	8.61000e+02	3.01872	220.5
862	2.20702e+02	8.62000e+02	3.01829	221.0
863	2.21194e+02	8.63000e+02	3.01787	221.5
864	2.21710e+02	8.64000e+02	3.01745	222.0
865	2.22214e+02	8.65000e+02	3.01702	222.5
866	2.22725e+02	8.66000e+02	3.0166	223.0
867	2.23225e+02	8.67000e+02	3.01618	223.5
868	2.23736e+02	8.68000e+02	3.01577	224.0
869	2.24237e+02	8.69000e+02	3.01535	224.5
870	2.24744e+02	8.70000e+02	3.01492	225.0
871	2.25248e+02	8.71000e+02	3.01449	225.5
872	2.25765e+02	8.72000e+02	3.01405	226.0
873	2.26255e+02	8.73000e+02	3.0136	226.5
874	2.26761e+02	8.74000e+02	3.01316	227.0
875	2.27253e+02	8.75000e+02	3.0127	227.5
876	2.27779e+02	8.76000e+02	3.01223	228.0
877	2.28285e+02	8.77000e+02	3.01177	228.5
878	2.28782e+02	8.78000e+02	3.01131	229.0
879	2.29299e+02	8.79000e+02	3.01084	229.5
880	2.29807e+02	8.80000e+02	3.01038	230.0
881	2.30306e+02	8.81000e+02	3.00993	230.5
882	2.30809e+02	8.82000e+02	3.00948	231.0
883	2.31308e+02	8.83000e+02	3.00903	231.5
884	2.31825e+02	8.84000e+02	3.00859	232.0
885	2.32333e+02	8.85000e+02	3.00814	232.5
886	2.32825e+02	8.86000e+02	3.00769	233.0
887	2.33339e+02	8.87000e+02	3.00723	233.5
888	2.33844e+02	8.88000e+02	3.00675	234.0
889	2.34343e+02	8.89000e+02	3.00628	234.5
890	2.34857e+02	8.90000e+02	3.0058	235.0
891	2.35356e+02	8.91000e+02	3.00531	235.5
892	2.35866e+02	8.92000e+02	3.00481	236.0
893	2.36383e+02	8.93000e+02	3.00432	236.5
894	2.36889e+02	8.94000e+02	3.00383	237.0
895	2.37387e+02	8.95000e+02	3.00333	237.5
896	2.37900e+02	8.96000e+02	3.00284	238.0
897	2.38410e+02	8.97000e+02	3.00234	238.5
898	2.38917e+02	8.98000e+02	3.00185	239.0
899	2.39429e+02	8.99000e+02	3.00135	239.5
900	2.39923e+02	9.00000e+02	3.00085	240.0
901	2.40421e+02	9.01000e+02	3.00036	240.5
902	2.40938e+02	9.02000e+02	2.99987	241.0
903	2.41443e+02	9.03000e+02	2.99938	241.5
904	2.41951e+02	9.04000e+02	2.99889	242.0
905	2.42457e+02	9.05000e+02	2.9984	242.5
906	2.42973e+02	9.06000e+02	2.9979	243.0
907	2.43469e+02	9.07000e+02	2.9974	243.5
908	2.43985e+02	9.08000e+02	2.9969	244.0
909	2.44487e+02	9.09000e+02	2.9964	244.5
910	2.44996e+02	9.10000e+02	2.99591	245.0
911	2.45501e+02	9.11000e+02	2.99541	245.5
912	2.46018e+02	9.12000e+02	2.99491	246.0
913	2.46525e+02	9.13000e+02	2.99441	246.5
914	2.47046e+02	9.14000e+02	2.99391	247.0
915	2.47545e+02	9.15000e+02	2.9934	247.5
916	2.48055e+02	9.16000e+02	2.9929	248.0
917	2.48566e+02	9.17000e+02	2.9924	248.5
918	2.49071e+02	9.18000e+02	2.99192	249.0
919	2.49584e+02	9.19000e+02	2.99143	249.5
920	2.50093e+02	9.20000e+02	2.99097	250.0
921	2.50605e+02	9.21000e+02	2.9905	250.5
922	2.51101e+02	9.22000e+02	2.99002	251.0
923	2.51613e+02	9.23000e+02	2.98954	251.5
924	2.52125e+02	9.24000e+02	2.98905	252.0
925	2.52648e+02	9.25000e+02	2.98856	252.5
926	2.53146e+02	9.26000e+02	2.98806	253.0
927	2.53663e+02	9.27000e+02	2.98756	253.5
928	2.54179e+02	9.28000e+02	2.98702	254.0
929	2.54680e+02	9.29000e+02	2.98649	254.5
930	2.55210e+02	9.30000e+02	2.98596	255.0
931	2.55709e+02	9.31000e+02	2.98542	255.5
932	2.56225e+02	9.32000e+02	2.98486	256.0
933	2.56733e+02	9.33000e+02	2.98431	256.5
934	2.57244e+02	9.34000e+02	2.98375	257.0
935	2.57762e+02	9.35000e+02	2.9832	257.5
936	2.58251e+02	9.36000e+02	2.98264	258.0
937	2.58779e+02	9.37000e+02	2.98208	258.5
938	2.59292e+02	9.38000e+02	2.9815	259.0
939	2.59813e+02	9.39000e+02	2.98092	259.5
940	2.60316e+02	9.40000e+02	2.98033	260.0
941	2.60836e+02	9.41000e+02	2.97974	260.5
942	2.61351e+02	9.42000e+02	2.97916	261.0
943	2.61866e+02	9.43000e+02	2.97857	261.5
944	2.62369e+02	9.44000e+02	2.978	262.0
945	2.62901e+02	9.45000e+02	2.97742	262.5
946	2.63407e+02	9.46000e+02	2.97685	263.0
947	2.63921e+02	9.47000e+02	2.97628	263.5
948	2.64429e+02	9.48000e+02	2.97574	264.0
949	2.64941e+02	9.49000e+02	2.97518	264.5
950	2.65463e+02	9.50000e+02	2.97464	265.0
951	2.65962e+02	9.51000e+02	2.9741	265.5
952	2.66471e+02	9.52000e+02	2.97358	266.0
953	2.66989e+02	9.53000e+02	2.97305	266.5
954	2.67514e+02	9.54000e+02	2.97253	267.0
955	2.68040e+02	9.55000e+02	2.97201	267.5
956	2.68562e+02	9.56000e+02	2.97149	268.0
957	2.69076e+02	9.57000e+02	2.97097	268.5
958	2.69598e+02	9.58000e+02	2.97043	269.0
959	2.70149e+02	9.59000e+02	2.9699	269.5
960	2.70695e+02	9.60000e+02	2.96935	270.0
961	2.71253e+02	9.61000e+02	2.9688	270.5
962	2.71833e+02	9.62000e+02	2.96825	271.0
963	2.72382e+02	9.63000e+02	2.96769	271.5
964	2.72871e+02	9.64000e+02	2.96711	272.0
965	2.73394e+02	9.65000e+02	2.96654	272.5
966	2.73925e+02	9.66000e+02	2.96596	273.0
967	2.74418e+02	9.67000e+02	2.96539	273.5
968	2.74906e+02	9.68000e+02	2.9648	274.0
969	2.75429e+02	9.69000e+02	2.96422	274.5
970	2.75963e+02	9.70000e+02	2.96365	275.0
971	2.76472e+02	9.71000e+02	2.96308	275.5
972	2.76988e+02	9.72000e+02	2.96253	276.0
973	2.77499e+02	9.73000e+02	2.96197	276.5
974	2.78012e+02	9.74000e+02	2.96141	277.0
975	2.78533e+02	9.75000e+02	2.96085	277.5
976	2.79059e+02	9.76000e+02	2.96029	278.0
977	2.79575e+02	9.77000e+02	2.95971	278.5
978	2.80095e+02	9.78000e+02	2.95913	279.0
979	2.80634e+02	9.79000e+02	2.95853	279.5
980	2.81144e+02	9.80000e+02	2.9579	280.0
981	2.81672e+02	9.81000e+02	2.95727	280.5
982	2.82206e+02	9.82000e+02	2.95664	281.0
983	2.82729e+02	9.83000e+02	2.95601	281.5
984	2.83251e+02	9.84000e+02	2.95536	282.0
985	2.83770e+02	9.85000e+02	2.95473	282.5
986	2.84310e+02	9.86000e+02	2.9541	283.0
987	2.84836e+02	9.87000e+02	2.95347	283.5
988	2.85337e+02	9.88000e+02	2.95283	284.0
989	2.85852e+02	9.89000e+02	2.95218	284.5
990	2.86352e+02	9.90000e+02	2.95151	285.0
991	2.86856e+02	9.91000e+02	2.95084	285.5
992	2.87375e+02	9.92000e+02	2.95012	286.0
993	2.87880e+02	9.93000e+02	2.94942	286.5
994	2.88400e+02	9.94000e+02	2.94873	287.0
995	2.88916e+02	9.95000e+02	2.94803	287.5
996	2.89412e+02	9.96000e+02	2.94732	288.0
997	2.89958e+02	9.97000e+02	2.94662	288.5
998	2.90498e+02	9.98000e+02	2.94592	289.0
999	2.91033e+02	9.99000e+02	2.94522	289.5
1000	2.91526e+02	1.00000e+03	2.94453	290.0
1001	2.92062e+02	1.00100e+03	2.94382	290.5
1002	2.92576e+02	1.00200e+03	2.94311	291.0
1003	2.93088e+02	1.00300e+03	2.9424	291.5
1004	2.93586e+02	1.00400e+03	2.94166	292.0
1005	2.94093e+02	1.00500e+03	2.94091	292.5
1006	2.94613e+02	1.00600e+03	2.94014	293.0
1007	2.95112e+02	1.00700e+03	2.93937	293.5
1008	2.95642e+02	1.00800e+03	2.93855	294.0
1009	2.96160e+02	1.00900e+03	2.93774	294.5
1010	2.96649e+02	1.01000e+03	2.93692	295.0
1011	2.97145e+02	1.01100e+03	2.9361	295.5
1012	2.97679e+02	1.01200e+03	2.93523	296.0
1013	2.98195e+02	1.01300e+03	2.93437	296.5
1014	2.98796e+02	1.01400e+03	2.93349	297.0
1015	2.99268e+02	1.01500e+03	2.9326	297.5
1016	2.99748e+02	1.01600e+03	2.93165	298.0
1017	3.00253e+02	1.01700e+03	2.93072	298.5
1018	3.00769e+02	1.01800e+03	2.92978	299.0
1019	3.01309e+02	1.01900e+03	2.92883	299.5
1020	3.01791e+02	1.02000e+03	2.92783	300.0
1021	3.02281e+02	1.02100e+03	2.92684	300.5
1022	3.02798e+02	1.02200e+03	2.92584	301.0
1023	3.03284e+02	1.02300e+03	2.92483	301.5
1024	3.03798e+02	1.02400e+03	2.92378	302.0
1025	3.04301e+02	1.02500e+03	2.92272	302.5
1026	3.04829e+02	1.02600e+03	2.92165	303.0
1027	3.05360e+02	1.02700e+03	2.92057	303.5
1028	3.05888e+02	1.02800e+03	2.91943	304.0
1029	3.06408e+02	1.02900e+03	2.91831	304.5
1030	3.06893e+02	1.03000e+03	2.91717	305.0
1031	3.07367e+02	1.03100e+03	2.91602	305.5
1032	3.07854e+02	1.03200e+03	2.91483	306.0
1033	3.08343e+02	1.03300e+03	2.91364	306.5
1034	3.08839e+02	1.03400e+03	2.91244	307.0
1035	3.09294e+02	1.03500e+03	2.91123	307.5
1036	3.09746e+02	1.03600e+03	2.90998	308.0
1037	3.10218e+02	1.03700e+03	2.90873	308.5
1038	3.10701e+02	1.03800e+03	2.90746	309.0
1039	3.11177e+02	1.03900e+03	2.90618	309.5
1040	3.11668e+02	1.04000e+03	2.90485	310.0
1041	3.12155e+02	1.04100e+03	2.90352	310.5
1042	3.12641e+02	1.04200e+03	2.90217	311.0
1043	3.13126e+02	1.04300e+03	2.90081	311.5
1044	3.13629e+02	1.04400e+03	2.89939	312.0
1045	3.14160e+02	1.04500e+03	2.89798	312.5
1046	3.14669e+02	1.04600e+03	2.89656	313.0
1047	3.15193e+02	1.04700e+03	2.89512	313.5
1048	3.15720e+02	1.04800e+03	2.89363	314.0
1049	3.16259e+02	1.04900e+03	2.89214	314.5
1050	3.16794e+02	1.05000e+03	2.89065	315.0
1051	3.17328e+02	1.05100e+03	2.88914	315.5
1052	3.17858e+02	1.05200e+03	2.8876	316.0
1053	3.18394e+02	1.05300e+03	2.88607	316.5
1054	3.18896e+02	1.05400e+03	2.88454	317.0
1055	3.19393e+02	1.05500e+03	2.88301	317.5
1056	3.19885e+02	1.05600e+03	2.88147	318.0
1057	3.20364e+02	1.05700e+03	2.87993	318.5
1058	3.20875e+02	1.05800e+03	2.87838	319.0
1059	3.21381e+02	1.05900e+03	2.87684	319.5
1060	3.21910e+02	1.06000e+03	2.87527	320.0
1061	3.22404e+02	1.06100e+03	2.87371	320.5
1062	3.22902e+02	1.06200e+03	2.87215	321.0
1063	3.23416e+02	1.06300e+03	2.87058	321.5
1064	3.23903e+02	1.06400e+03	2.86899	322.0
1065	3.24410e+02	1.06500e+03	2.86739	322.5
1066	3.24935e+02	1.06600e+03	2.86578	323.0
1067	3.25452e+02	1.06700e+03	2.86417	323.5
1068	3.25968e+02	1.06800e+03	2.86252	324.0
1069	3.26459e+02	1.06900e+03	2.86087	324.5
1070	3.26969e+02	1.07000e+03	2.85922	325.0
1071	3.27471e+02	1.07100e+03	2.85756	325.5
1072	3.27970e+02	1.07200e+03	2.85586	326.0
1073	3.28467e+02	1.07300e+03	2.85415	326.5
1074	3.28950e+02	1.07400e+03	2.85243	327.0
1075	3.29428e+02	1.07500e+03	2.85069	327.5
1076	3.29930e+02	1.07600e+03	2.84889	328.0
1077	3.30416e+02	1.07700e+03	2.84711	328.5
1078	3.30918e+02	1.07800e+03	2.84531	329.0
1079	3.31434e+02	1.07900e+03	2.84349	329.5
1080	3.31963e+02	1.08000e+03	2.84162	330.0
1081	3.32484e+02	1.08100e+03	2.83974	330.5
1082	3.33013e+02	1.08200e+03	2.83785	331.0
1083	3.33534e+02	1.08300e+03	2.83593	331.5
1084	3.34031e+02	1.08400e+03	2.83393	332.0
1085	3.34538e+02	1.08500e+03	2.83194	332.5
1086	3.35047e+02	1.08600e+03	2.82992	333.0
1087	3.35540e+02	1.08700e+03	2.82787	333.5
1088	3.36040e+02	1.08800e+03	2.82571	334.0
1089	3.36544e+02	1.08900e+03	2.82354	334.5
1090	3.37056e+02	1.09000e+03	2.82133	335.0
1091	3.37574e+02	1.09100e+03	2.81909	335.5
1092	3.38068e+02	1.09200e+03	2.81668	336.0
1093	3.38567e+02	1.09300e+03	2.81428	336.5
1094	3.39067e+02	1.09400e+03	2.81183	337.0
1095	3.39562e+02	1.09500e+03	2.80935	337.5
1096	3.40074e+02	1.09600e+03	2.80667	338.0
1097	3.40573e+02	1.09700e+03	2.804	338.5
1098	3.41072e+02	1.09800e+03	2.80129	339.0
1099	3.41559e+02	1.09900e+03	2.79853	339.5
1100	3.42041e+02	1.10000e+03	2.79555	340.0
1101	3.42522e+02	1.10100e+03	2.7926	340.5
1102	3.43016e+02	1.10200e+03	2.78959	341.0
1103	3.43499e+02	1.10300e+03	2.78654	341.5
1104	3.43975e+02	1.10400e+03	2.78324	342.0
1105	3.44471e+02	1.10500e+03	2.77996	342.5
1106	3.44970e+02	1.10600e+03	2.7766	343.0
1107	3.45466e+02	1.10700e+03	2.77318	343.5
1108	3.45973e+02	1.10800e+03	2.76945	344.0
1109	3.46468e+02	1.10900e+03	2.76573	344.5
1110	3.46950e+02	1.11000e+03	2.76194	345.0
1111	3.47484e+02	1.11100e+03	2.75806	345.5
1112	3.48011e+02	1.11200e+03	2.75379	346.0
1113	3.48518e+02	1.11300e+03	2.74956	346.5
1114	3.49016e+02	1.11400e+03	2.74522	347.0
1115	3.49495e+02	1.11500e+03	2.74079	347.5
1116	3.49985e+02	1.11600e+03	2.73591	348.0
1117	3.50505e+02	1.11700e+03	2.73107	348.5
1118	3.50998e+02	1.11800e+03	2.72612	349.0
1119	3.51495e+02	1.11900e+03	2.72108	349.5
1120	3.51985e+02	1.12000e+03	2.71552	350.0
1121	3.52475e+02	1.12100e+03	2.71002	350.5
1122	3.52978e+02	1.12200e+03	2.70439	351.0
1123	3.53503e+02	1.12300e+03	2.69865	351.5
1124	3.54014e+02	1.12400e+03	2.69233	352.0
1125	3.54502e+02	1.12500e+03	2.68606	352.5
1126	3.54992e+02	1.12600e+03	2.67965	353.0
1127	3.55492e+02	1.12700e+03	2.6731	353.5
1128	3.55973e+02	1.12800e+03	2.66589	354.0
1129	3.56472e+02	1.12900e+03	2.65873	354.5
1130	3.56984e+02	1.13000e+03	2.65139	355.0
1131	3.57504e+02	1.13100e+03	2.64389	355.5
1132	3.57988e+02	1.13200e+03	2.63558	356.0
1133	3.58477e+02	1.13300e+03	2.62732	356.5
1134	3.58951e+02	1.13400e+03	2.61883	357.0
1135	3.59466e+02	1.13500e+03	2.61015	357.5
1136	3.59940e+02	1.13600e+03	2.60046	358.0
1137	3.60419e+02	1.13700e+03	2.59086	358.5
1138	3.60898e+02	1.13800e+03	2.58098	359.0
1139	3.61378e+02	1.13900e+03	2.57085	359.5
1140	3.61864e+02	1.14000e+03	2.55948	360.0
1141	3.62346e+02	1.14100e+03	2.54816	360.5
1142	3.62839e+02	1.14200e+03	2.53649	361.0
1143	3.63324e+02	1.14300e+03	2.52451	361.5
1144	3.63816e+02	1.14400e+03	2.51096	362.0
