index	ts	t	weight	tr
[#]	[°C]	[s]	[mg]	[°C]
1083	1.30258e+02	1.08300e+03	9.77411e-01	1.30250e+02
1084	1.30348e+02	1.08400e+03	9.77407e-01	1.30333e+02
1085	1.30430e+02	1.08500e+03	9.77407e-01	1.30417e+02
1086	1.30519e+02	1.08600e+03	9.77412e-01	1.30500e+02
1087	1.30604e+02	1.08700e+03	9.77419e-01	1.30583e+02
1088	1.30689e+02	1.08800e+03	9.77435e-01	1.30667e+02
1089	1.30769e+02	1.08900e+03	9.77446e-01	1.30750e+02
1090	1.30843e+02	1.09000e+03	9.77454e-01	1.30833e+02
1091	1.30947e+02	1.09100e+03	9.77459e-01	1.30917e+02
1092	1.31023e+02	1.09200e+03	9.77459e-01	1.31000e+02
1093	1.31096e+02	1.09300e+03	9.77458e-01	1.31083e+02
1094	1.31181e+02	1.09400e+03	9.77456e-01	1.31167e+02
1095	1.31264e+02	1.09500e+03	9.77454e-01	1.31250e+02
1096	1.31352e+02	1.09600e+03	9.77440e-01	1.31333e+02
1097	1.31430e+02	1.09700e+03	9.77429e-01	1.31417e+02
1098	1.31524e+02	1.09800e+03	9.77418e-01	1.31500e+02
1099	1.31597e+02	1.09900e+03	9.77407e-01	1.31583e+02
1100	1.31686e+02	1.10000e+03	9.77397e-01	1.31667e+02
1101	1.31762e+02	1.10100e+03	9.77391e-01	1.31750e+02
1102	1.31845e+02	1.10200e+03	9.77386e-01	1.31833e+02
1103	1.31935e+02	1.10300e+03	9.77382e-01	1.31917e+02
1104	1.32008e+02	1.10400e+03	9.77384e-01	1.32000e+02
1105	1.32091e+02	1.10500e+03	9.77382e-01	1.32083e+02
1106	1.32181e+02	1.10600e+03	9.77376e-01	1.32167e+02
1107	1.32265e+02	1.10700e+03	9.77367e-01	1.32250e+02
1108	1.32356e+02	1.10800e+03	9.77350e-01	1.32333e+02
1109	1.32428e+02	1.10900e+03	9.77336e-01	1.32417e+02
1110	1.32520e+02	1.11000e+03	9.77322e-01	1.32500e+02
1111	1.32603e+02	1.11100e+03	9.77311e-01	1.32583e+02
1112	1.32688e+02	1.11200e+03	9.77300e-01	1.32667e+02
1113	1.32762e+02	1.11300e+03	9.77295e-01	1.32750e+02
1114	1.32849e+02	1.11400e+03	9.77293e-01	1.32833e+02
1115	1.32927e+02	1.11500e+03	9.77291e-01	1.32917e+02
1116	1.33023e+02	1.11600e+03	9.77303e-01	1.33000e+02
1117	1.33106e+02	1.11700e+03	9.77307e-01	1.33083e+02
1118	1.33179e+02	1.11800e+03	9.77310e-01	1.33167e+02
1119	1.33274e+02	1.11900e+03	9.77312e-01	1.33250e+02
1120	1.33357e+02	1.12000e+03	9.77315e-01	1.33333e+02
1121	1.33432e+02	1.12100e+03	9.77320e-01	1.33417e+02
1122	1.33516e+02	1.12200e+03	9.77327e-01	1.33500e+02
1123	1.33606e+02	1.12300e+03	9.77333e-01	1.33583e+02
1124	1.33677e+02	1.12400e+03	9.77337e-01	1.33667e+02
1125	1.33779e+02	1.12500e+03	9.77336e-01	1.33750e+02
1126	1.33856e+02	1.12600e+03	9.77331e-01	1.33833e+02
1127	1.33932e+02	1.12700e+03	9.77327e-01	1.33917e+02
1128	1.34015e+02	1.12800e+03	9.77317e-01	1.34000e+02
1129	1.34093e+02	1.12900e+03	9.77316e-01	1.34083e+02
1130	1.34180e+02	1.13000e+03	9.77322e-01	1.34167e+02
1131	1.34272e+02	1.13100e+03	9.77330e-01	1.34250e+02
1132	1.34353e+02	1.13200e+03	9.77354e-01	1.34333e+02
1133	1.34432e+02	1.13300e+03	9.77374e-01	1.34417e+02
1134	1.34508e+02	1.13400e+03	9.77397e-01	1.34500e+02
1135	1.34602e+02	1.13500e+03	9.77421e-01	1.34583e+02
1136	1.34669e+02	1.13600e+03	9.77454e-01	1.34667e+02
1137	1.34773e+02	1.13700e+03	9.77479e-01	1.34750e+02
1138	1.34843e+02	1.13800e+03	9.77501e-01	1.34833e+02
1139	1.34925e+02	1.13900e+03	9.77520e-01	1.34917e+02
1140	1.35016e+02	1.14000e+03	9.77530e-01	1.35000e+02
1141	1.35093e+02	1.14100e+03	9.77537e-01	1.35083e+02
1142	1.35166e+02	1.14200e+03	9.77537e-01	1.35167e+02
1143	1.35274e+02	1.14300e+03	9.77533e-01	1.35250e+02
1144	1.35344e+02	1.14400e+03	9.77509e-01	1.35333e+02
1145	1.35426e+02	1.14500e+03	9.77491e-01	1.35417e+02
1146	1.35519e+02	1.14600e+03	9.77471e-01	1.35500e+02
1147	1.35596e+02	1.14700e+03	9.77452e-01	1.35583e+02
1148	1.35687e+02	1.14800e+03	9.77426e-01	1.35667e+02
1149	1.35768e+02	1.14900e+03	9.77408e-01	1.35750e+02
1150	1.35853e+02	1.15000e+03	9.77394e-01	1.35833e+02
1151	1.35942e+02	1.15100e+03	9.77380e-01	1.35917e+02
1152	1.36013e+02	1.15200e+03	9.77373e-01	1.36000e+02
1153	1.36094e+02	1.15300e+03	9.77360e-01	1.36083e+02
1154	1.36174e+02	1.15400e+03	9.77343e-01	1.36167e+02
1155	1.36272e+02	1.15500e+03	9.77327e-01	1.36250e+02
1156	1.36349e+02	1.15600e+03	9.77309e-01	1.36333e+02
1157	1.36428e+02	1.15700e+03	9.77293e-01	1.36417e+02
1158	1.36509e+02	1.15800e+03	9.77281e-01	1.36500e+02
1159	1.36595e+02	1.15900e+03	9.77271e-01	1.36583e+02
1160	1.36680e+02	1.16000e+03	9.77267e-01	1.36667e+02
1161	1.36767e+02	1.16100e+03	9.77261e-01	1.36750e+02
1162	1.36850e+02	1.16200e+03	9.77256e-01	1.36833e+02
1163	1.36933e+02	1.16300e+03	9.77252e-01	1.36917e+02
1164	1.37010e+02	1.16400e+03	9.77254e-01	1.37000e+02
1165	1.37096e+02	1.16500e+03	9.77255e-01	1.37083e+02
1166	1.37181e+02	1.16600e+03	9.77258e-01	1.37167e+02
1167	1.37276e+02	1.16700e+03	9.77263e-01	1.37250e+02
1168	1.37361e+02	1.16800e+03	9.77277e-01	1.37333e+02
1169	1.37429e+02	1.16900e+03	9.77290e-01	1.37417e+02
1170	1.37524e+02	1.17000e+03	9.77304e-01	1.37500e+02
1171	1.37606e+02	1.17100e+03	9.77318e-01	1.37583e+02
1172	1.37694e+02	1.17200e+03	9.77340e-01	1.37667e+02
1173	1.37772e+02	1.17300e+03	9.77356e-01	1.37750e+02
1174	1.37855e+02	1.17400e+03	9.77371e-01	1.37833e+02
1175	1.37939e+02	1.17500e+03	9.77385e-01	1.37917e+02
1176	1.38023e+02	1.17600e+03	9.77396e-01	1.38000e+02
1177	1.38100e+02	1.17700e+03	9.77405e-01	1.38083e+02
1178	1.38187e+02	1.17800e+03	9.77410e-01	1.38167e+02
1179	1.38273e+02	1.17900e+03	9.77412e-01	1.38250e+02
1180	1.38352e+02	1.18000e+03	9.77406e-01	1.38333e+02
1181	1.38452e+02	1.18100e+03	9.77402e-01	1.38417e+02
1182	1.38529e+02	1.18200e+03	9.77399e-01	1.38500e+02
1183	1.38608e+02	1.18300e+03	9.77398e-01	1.38583e+02
1184	1.38686e+02	1.18400e+03	9.77390e-01	1.38667e+02
1185	1.38763e+02	1.18500e+03	9.77386e-01	1.38750e+02
1186	1.38849e+02	1.18600e+03	9.77382e-01	1.38833e+02
1187	1.38940e+02	1.18700e+03	9.77377e-01	1.38917e+02
1188	1.39006e+02	1.18800e+03	9.77374e-01	1.39000e+02
1189	1.39098e+02	1.18900e+03	9.77369e-01	1.39083e+02
1190	1.39183e+02	1.19000e+03	9.77365e-01	1.39167e+02
1191	1.39264e+02	1.19100e+03	9.77361e-01	1.39250e+02
1192	1.39347e+02	1.19200e+03	9.77358e-01	1.39333e+02
1193	1.39430e+02	1.19300e+03	9.77357e-01	1.39417e+02
1194	1.39510e+02	1.19400e+03	9.77356e-01	1.39500e+02
1195	1.39596e+02	1.19500e+03	9.77352e-01	1.39583e+02
1196	1.39670e+02	1.19600e+03	9.77348e-01	1.39667e+02
1197	1.39766e+02	1.19700e+03	9.77341e-01	1.39750e+02
1198	1.39852e+02	1.19800e+03	9.77331e-01	1.39833e+02
1199	1.39926e+02	1.19900e+03	9.77320e-01	1.39917e+02
1200	1.40007e+02	1.20000e+03	9.77305e-01	1.40000e+02
1201	1.40104e+02	1.20100e+03	9.77298e-01	1.40083e+02
1202	1.40192e+02	1.20200e+03	9.77295e-01	1.40167e+02
1203	1.40271e+02	1.20300e+03	9.77293e-01	1.40250e+02
1204	1.40342e+02	1.20400e+03	9.77303e-01	1.40333e+02
1205	1.40424e+02	1.20500e+03	9.77309e-01	1.40417e+02
1206	1.40519e+02	1.20600e+03	9.77317e-01	1.40500e+02
1207	1.40592e+02	1.20700e+03	9.77326e-01	1.40583e+02
1208	1.40672e+02	1.20800e+03	9.77337e-01	1.40667e+02
1209	1.40752e+02	1.20900e+03	9.77342e-01	1.40750e+02
1210	1.40835e+02	1.21000e+03	9.77343e-01	1.40833e+02
1211	1.40936e+02	1.21100e+03	9.77341e-01	1.40917e+02
1212	1.41012e+02	1.21200e+03	9.77326e-01	1.41000e+02
1213	1.41096e+02	1.21300e+03	9.77313e-01	1.41083e+02
1214	1.41178e+02	1.21400e+03	9.77299e-01	1.41167e+02
1215	1.41276e+02	1.21500e+03	9.77284e-01	1.41250e+02
1216	1.41360e+02	1.21600e+03	9.77259e-01	1.41333e+02
1217	1.41421e+02	1.21700e+03	9.77241e-01	1.41417e+02
1218	1.41518e+02	1.21800e+03	9.77227e-01	1.41500e+02
1219	1.41597e+02	1.21900e+03	9.77217e-01	1.41583e+02
1220	1.41689e+02	1.22000e+03	9.77214e-01	1.41667e+02
1221	1.41762e+02	1.22100e+03	9.77210e-01	1.41750e+02
1222	1.41854e+02	1.22200e+03	9.77207e-01	1.41833e+02
1223	1.41940e+02	1.22300e+03	9.77202e-01	1.41917e+02
1224	1.42016e+02	1.22400e+03	9.77195e-01	1.42000e+02
1225	1.42100e+02	1.22500e+03	9.77180e-01	1.42083e+02
1226	1.42189e+02	1.22600e+03	9.77159e-01	1.42167e+02
1227	1.42270e+02	1.22700e+03	9.77135e-01	1.42250e+02
1228	1.42340e+02	1.22800e+03	9.77091e-01	1.42333e+02
1229	1.42431e+02	1.22900e+03	9.77057e-01	1.42417e+02
1230	1.42519e+02	1.23000e+03	9.77027e-01	1.42500e+02
1231	1.42602e+02	1.23100e+03	9.76999e-01	1.42583e+02
1232	1.42686e+02	1.23200e+03	9.76981e-01	1.42667e+02
1233	1.42761e+02	1.23300e+03	9.76970e-01	1.42750e+02
1234	1.42860e+02	1.23400e+03	9.76966e-01	1.42833e+02
1235	1.42951e+02	1.23500e+03	9.76967e-01	1.42917e+02
1236	1.43031e+02	1.23600e+03	9.76996e-01	1.43000e+02
1237	1.43106e+02	1.23700e+03	9.77015e-01	1.43083e+02
1238	1.43200e+02	1.23800e+03	9.77033e-01	1.43167e+02
1239	1.43280e+02	1.23900e+03	9.77054e-01	1.43250e+02
1240	1.43357e+02	1.24000e+03	9.77085e-01	1.43333e+02
1241	1.43432e+02	1.24100e+03	9.77112e-01	1.43417e+02
1242	1.43525e+02	1.24200e+03	9.77139e-01	1.43500e+02
1243	1.43620e+02	1.24300e+03	9.77167e-01	1.43583e+02
1244	1.43692e+02	1.24400e+03	9.77194e-01	1.43667e+02
1245	1.43774e+02	1.24500e+03	9.77216e-01	1.43750e+02
1246	1.43860e+02	1.24600e+03	9.77234e-01	1.43833e+02
1247	1.43940e+02	1.24700e+03	9.77249e-01	1.43917e+02
1248	1.44021e+02	1.24800e+03	9.77253e-01	1.44000e+02
1249	1.44101e+02	1.24900e+03	9.77260e-01	1.44083e+02
1250	1.44185e+02	1.25000e+03	9.77266e-01	1.44167e+02
1251	1.44271e+02	1.25100e+03	9.77272e-01	1.44250e+02
1252	1.44370e+02	1.25200e+03	9.77278e-01	1.44333e+02
1253	1.44447e+02	1.25300e+03	9.77290e-01	1.44417e+02
1254	1.44532e+02	1.25400e+03	9.77304e-01	1.44500e+02
1255	1.44617e+02	1.25500e+03	9.77318e-01	1.44583e+02
1256	1.44709e+02	1.25600e+03	9.77337e-01	1.44667e+02
1257	1.44774e+02	1.25700e+03	9.77346e-01	1.44750e+02
1258	1.44869e+02	1.25800e+03	9.77349e-01	1.44833e+02
1259	1.44959e+02	1.25900e+03	9.77350e-01	1.44917e+02
1260	1.45036e+02	1.26000e+03	9.77337e-01	1.45000e+02
1261	1.45117e+02	1.26100e+03	9.77331e-01	1.45083e+02
1262	1.45211e+02	1.26200e+03	9.77327e-01	1.45167e+02
1263	1.45292e+02	1.26300e+03	9.77323e-01	1.45250e+02
1264	1.45372e+02	1.26400e+03	9.77318e-01	1.45333e+02
1265	1.45450e+02	1.26500e+03	9.77314e-01	1.45417e+02
1266	1.45533e+02	1.26600e+03	9.77310e-01	1.45500e+02
1267	1.45607e+02	1.26700e+03	9.77306e-01	1.45583e+02
1268	1.45688e+02	1.26800e+03	9.77302e-01	1.45667e+02
1269	1.45780e+02	1.26900e+03	9.77294e-01	1.45750e+02
1270	1.45857e+02	1.27000e+03	9.77285e-01	1.45833e+02
1271	1.45948e+02	1.27100e+03	9.77276e-01	1.45917e+02
1272	1.46027e+02	1.27200e+03	9.77270e-01	1.46000e+02
1273	1.46113e+02	1.27300e+03	9.77267e-01	1.46083e+02
1274	1.46196e+02	1.27400e+03	9.77267e-01	1.46167e+02
1275	1.46277e+02	1.27500e+03	9.77266e-01	1.46250e+02
1276	1.46360e+02	1.27600e+03	9.77272e-01	1.46333e+02
1277	1.46445e+02	1.27700e+03	9.77269e-01	1.46417e+02
1278	1.46525e+02	1.27800e+03	9.77260e-01	1.46500e+02
1279	1.46606e+02	1.27900e+03	9.77247e-01	1.46583e+02
1280	1.46688e+02	1.28000e+03	9.77225e-01	1.46667e+02
1281	1.46773e+02	1.28100e+03	9.77206e-01	1.46750e+02
1282	1.46860e+02	1.28200e+03	9.77189e-01	1.46833e+02
1283	1.46936e+02	1.28300e+03	9.77173e-01	1.46917e+02
1284	1.47034e+02	1.28400e+03	9.77161e-01	1.47000e+02
1285	1.47116e+02	1.28500e+03	9.77152e-01	1.47083e+02
1286	1.47193e+02	1.28600e+03	9.77145e-01	1.47167e+02
1287	1.47276e+02	1.28700e+03	9.77140e-01	1.47250e+02
1288	1.47361e+02	1.28800e+03	9.77146e-01	1.47333e+02
1289	1.47448e+02	1.28900e+03	9.77144e-01	1.47417e+02
1290	1.47535e+02	1.29000e+03	9.77138e-01	1.47500e+02
1291	1.47624e+02	1.29100e+03	9.77131e-01	1.47583e+02
1292	1.47702e+02	1.29200e+03	9.77119e-01	1.47667e+02
1293	1.47778e+02	1.29300e+03	9.77109e-01	1.47750e+02
1294	1.47860e+02	1.29400e+03	9.77098e-01	1.47833e+02
1295	1.47950e+02	1.29500e+03	9.77087e-01	1.47917e+02
1296	1.48036e+02	1.29600e+03	9.77078e-01	1.48000e+02
1297	1.48116e+02	1.29700e+03	9.77073e-01	1.48083e+02
1298	1.48196e+02	1.29800e+03	9.77072e-01	1.48167e+02
1299	1.48292e+02	1.29900e+03	9.77073e-01	1.48250e+02
1300	1.48369e+02	1.30000e+03	9.77085e-01	1.48333e+02
1301	1.48448e+02	1.30100e+03	9.77093e-01	1.48417e+02
1302	1.48540e+02	1.30200e+03	9.77102e-01	1.48500e+02
1303	1.48625e+02	1.30300e+03	9.77111e-01	1.48583e+02
1304	1.48707e+02	1.30400e+03	9.77120e-01	1.48667e+02
1305	1.48793e+02	1.30500e+03	9.77123e-01	1.48750e+02
1306	1.48868e+02	1.30600e+03	9.77123e-01	1.48833e+02
1307	1.48963e+02	1.30700e+03	9.77123e-01	1.48917e+02
1308	1.49038e+02	1.30800e+03	9.77119e-01	1.49000e+02
1309	1.49127e+02	1.30900e+03	9.77123e-01	1.49083e+02
1310	1.49201e+02	1.31000e+03	9.77131e-01	1.49167e+02
1311	1.49277e+02	1.31100e+03	9.77141e-01	1.49250e+02
1312	1.49366e+02	1.31200e+03	9.77158e-01	1.49333e+02
1313	1.49451e+02	1.31300e+03	9.77168e-01	1.49417e+02
1314	1.49543e+02	1.31400e+03	9.77174e-01	1.49500e+02
1315	1.49623e+02	1.31500e+03	9.77178e-01	1.49583e+02
1316	1.49703e+02	1.31600e+03	9.77171e-01	1.49667e+02
1317	1.49791e+02	1.31700e+03	9.77163e-01	1.49750e+02
1318	1.49878e+02	1.31800e+03	9.77151e-01	1.49833e+02
1319	1.49959e+02	1.31900e+03	9.77138e-01	1.49917e+02
1320	1.50054e+02	1.32000e+03	9.77112e-01	1.50000e+02
1321	1.50130e+02	1.32100e+03	9.77093e-01	1.50083e+02
1322	1.50214e+02	1.32200e+03	9.77077e-01	1.50167e+02
1323	1.50297e+02	1.32300e+03	9.77063e-01	1.50250e+02
1324	1.50379e+02	1.32400e+03	9.77056e-01	1.50333e+02
1325	1.50449e+02	1.32500e+03	9.77050e-01	1.50417e+02
1326	1.50551e+02	1.32600e+03	9.77048e-01	1.50500e+02
1327	1.50625e+02	1.32700e+03	9.77049e-01	1.50583e+02
1328	1.50722e+02	1.32800e+03	9.77062e-01	1.50667e+02
1329	1.50795e+02	1.32900e+03	9.77071e-01	1.50750e+02
1330	1.50879e+02	1.33000e+03	9.77080e-01	1.50833e+02
1331	1.50951e+02	1.33100e+03	9.77091e-01	1.50917e+02
1332	1.51042e+02	1.33200e+03	9.77105e-01	1.51000e+02
1333	1.51123e+02	1.33300e+03	9.77117e-01	1.51083e+02
1334	1.51211e+02	1.33400e+03	9.77128e-01	1.51167e+02
1335	1.51293e+02	1.33500e+03	9.77139e-01	1.51250e+02
1336	1.51374e+02	1.33600e+03	9.77149e-01	1.51333e+02
1337	1.51463e+02	1.33700e+03	9.77156e-01	1.51417e+02
1338	1.51556e+02	1.33800e+03	9.77164e-01	1.51500e+02
1339	1.51628e+02	1.33900e+03	9.77172e-01	1.51583e+02
1340	1.51707e+02	1.34000e+03	9.77181e-01	1.51667e+02
1341	1.51793e+02	1.34100e+03	9.77191e-01	1.51750e+02
1342	1.51894e+02	1.34200e+03	9.77199e-01	1.51833e+02
1343	1.51968e+02	1.34300e+03	9.77206e-01	1.51917e+02
1344	1.52054e+02	1.34400e+03	9.77206e-01	1.52000e+02
1345	1.52133e+02	1.34500e+03	9.77200e-01	1.52083e+02
1346	1.52227e+02	1.34600e+03	9.77190e-01	1.52167e+02
1347	1.52307e+02	1.34700e+03	9.77178e-01	1.52250e+02
1348	1.52381e+02	1.34800e+03	9.77154e-01	1.52333e+02
1349	1.52464e+02	1.34900e+03	9.77142e-01	1.52417e+02
1350	1.52557e+02	1.35000e+03	9.77135e-01	1.52500e+02
1351	1.52644e+02	1.35100e+03	9.77132e-01	1.52583e+02
1352	1.52723e+02	1.35200e+03	9.77141e-01	1.52667e+02
1353	1.52799e+02	1.35300e+03	9.77145e-01	1.52750e+02
1354	1.52899e+02	1.35400e+03	9.77148e-01	1.52833e+02
1355	1.52981e+02	1.35500e+03	9.77150e-01	1.52917e+02
1356	1.53051e+02	1.35600e+03	9.77153e-01	1.53000e+02
1357	1.53133e+02	1.35700e+03	9.77152e-01	1.53083e+02
1358	1.53220e+02	1.35800e+03	9.77151e-01	1.53167e+02
1359	1.53315e+02	1.35900e+03	9.77149e-01	1.53250e+02
1360	1.53399e+02	1.36000e+03	9.77140e-01	1.53333e+02
1361	1.53477e+02	1.36100e+03	9.77134e-01	1.53417e+02
1362	1.53564e+02	1.36200e+03	9.77128e-01	1.53500e+02
1363	1.53646e+02	1.36300e+03	9.77121e-01	1.53583e+02
1364	1.53733e+02	1.36400e+03	9.77110e-01	1.53667e+02
1365	1.53813e+02	1.36500e+03	9.77098e-01	1.53750e+02
1366	1.53906e+02	1.36600e+03	9.77086e-01	1.53833e+02
1367	1.53979e+02	1.36700e+03	9.77074e-01	1.53917e+02
1368	1.54059e+02	1.36800e+03	9.77061e-01	1.54000e+02
1369	1.54143e+02	1.36900e+03	9.77055e-01	1.54083e+02
1370	1.54234e+02	1.37000e+03	9.77055e-01	1.54167e+02
1371	1.54327e+02	1.37100e+03	9.77059e-01	1.54250e+02
1372	1.54397e+02	1.37200e+03	9.77076e-01	1.54333e+02
1373	1.54492e+02	1.37300e+03	9.77092e-01	1.54417e+02
1374	1.54555e+02	1.37400e+03	9.77110e-01	1.54500e+02
1375	1.54651e+02	1.37500e+03	9.77130e-01	1.54583e+02
1376	1.54743e+02	1.37600e+03	9.77158e-01	1.54667e+02
1377	1.54824e+02	1.37700e+03	9.77179e-01	1.54750e+02
1378	1.54901e+02	1.37800e+03	9.77196e-01	1.54833e+02
1379	1.54991e+02	1.37900e+03	9.77210e-01	1.54917e+02
1380	1.55061e+02	1.38000e+03	9.77208e-01	1.55000e+02
1381	1.55147e+02	1.38100e+03	9.77205e-01	1.55083e+02
1382	1.55222e+02	1.38200e+03	9.77197e-01	1.55167e+02
1383	1.55316e+02	1.38300e+03	9.77187e-01	1.55250e+02
1384	1.55390e+02	1.38400e+03	9.77156e-01	1.55333e+02
1385	1.55491e+02	1.38500e+03	9.77134e-01	1.55417e+02
1386	1.55566e+02	1.38600e+03	9.77114e-01	1.55500e+02
1387	1.55657e+02	1.38700e+03	9.77094e-01	1.55583e+02
1388	1.55739e+02	1.38800e+03	9.77075e-01	1.55667e+02
1389	1.55814e+02	1.38900e+03	9.77057e-01	1.55750e+02
1390	1.55896e+02	1.39000e+03	9.77044e-01	1.55833e+02
1391	1.55977e+02	1.39100e+03	9.77035e-01	1.55917e+02
1392	1.56066e+02	1.39200e+03	9.77038e-01	1.56000e+02
1393	1.56152e+02	1.39300e+03	9.77042e-01	1.56083e+02
1394	1.56238e+02	1.39400e+03	9.77046e-01	1.56167e+02
1395	1.56313e+02	1.39500e+03	9.77047e-01	1.56250e+02
1396	1.56391e+02	1.39600e+03	9.77056e-01	1.56333e+02
1397	1.56479e+02	1.39700e+03	9.77055e-01	1.56417e+02
1398	1.56571e+02	1.39800e+03	9.77051e-01	1.56500e+02
1399	1.56649e+02	1.39900e+03	9.77048e-01	1.56583e+02
1400	1.56737e+02	1.40000e+03	9.77037e-01	1.56667e+02
1401	1.56819e+02	1.40100e+03	9.77038e-01	1.56750e+02
1402	1.56905e+02	1.40200e+03	9.77045e-01	1.56833e+02
1403	1.56987e+02	1.40300e+03	9.77053e-01	1.56917e+02
1404	1.57067e+02	1.40400e+03	9.77077e-01	1.57000e+02
1405	1.57154e+02	1.40500e+03	9.77096e-01	1.57083e+02
1406	1.57233e+02	1.40600e+03	9.77116e-01	1.57167e+02
1407	1.57325e+02	1.40700e+03	9.77136e-01	1.57250e+02
1408	1.57408e+02	1.40800e+03	9.77161e-01	1.57333e+02
1409	1.57490e+02	1.40900e+03	9.77183e-01	1.57417e+02
1410	1.57578e+02	1.41000e+03	9.77202e-01	1.57500e+02
1411	1.57664e+02	1.41100e+03	9.77221e-01	1.57583e+02
1412	1.57734e+02	1.41200e+03	9.77234e-01	1.57667e+02
1413	1.57823e+02	1.41300e+03	9.77242e-01	1.57750e+02
1414	1.57908e+02	1.41400e+03	9.77243e-01	1.57833e+02
1415	1.58008e+02	1.41500e+03	9.77240e-01	1.57917e+02
1416	1.58090e+02	1.41600e+03	9.77224e-01	1.58000e+02
1417	1.58175e+02	1.41700e+03	9.77212e-01	1.58083e+02
1418	1.58249e+02	1.41800e+03	9.77201e-01	1.58167e+02
1419	1.58338e+02	1.41900e+03	9.77191e-01	1.58250e+02
1420	1.58415e+02	1.42000e+03	9.77179e-01	1.58333e+02
1421	1.58505e+02	1.42100e+03	9.77172e-01	1.58417e+02
1422	1.58595e+02	1.42200e+03	9.77167e-01	1.58500e+02
1423	1.58668e+02	1.42300e+03	9.77165e-01	1.58583e+02
1424	1.58754e+02	1.42400e+03	9.77170e-01	1.58667e+02
1425	1.58840e+02	1.42500e+03	9.77169e-01	1.58750e+02
1426	1.58920e+02	1.42600e+03	9.77166e-01	1.58833e+02
1427	1.59002e+02	1.42700e+03	9.77163e-01	1.58917e+02
1428	1.59090e+02	1.42800e+03	9.77158e-01	1.59000e+02
1429	1.59174e+02	1.42900e+03	9.77154e-01	1.59083e+02
1430	1.59246e+02	1.43000e+03	9.77150e-01	1.59167e+02
1431	1.59339e+02	1.43100e+03	9.77146e-01	1.59250e+02
1432	1.59417e+02	1.43200e+03	9.77145e-01	1.59333e+02
1433	1.59500e+02	1.43300e+03	9.77143e-01	1.59417e+02
1434	1.59586e+02	1.43400e+03	9.77140e-01	1.59500e+02
1435	1.59662e+02	1.43500e+03	9.77138e-01	1.59583e+02
1436	1.59750e+02	1.43600e+03	9.77138e-01	1.59667e+02
1437	1.59843e+02	1.43700e+03	9.77137e-01	1.59750e+02
1438	1.59922e+02	1.43800e+03	9.77136e-01	1.59833e+02
1439	1.60004e+02	1.43900e+03	9.77134e-01	1.59917e+02
1440	1.60094e+02	1.44000e+03	9.77129e-01	1.60000e+02
1441	1.60176e+02	1.44100e+03	9.77121e-01	1.60083e+02
1442	1.60255e+02	1.44200e+03	9.77113e-01	1.60167e+02
1443	1.60342e+02	1.44300e+03	9.77104e-01	1.60250e+02
1444	1.60429e+02	1.44400e+03	9.77090e-01	1.60333e+02
1445	1.60507e+02	1.44500e+03	9.77082e-01	1.60417e+02
1446	1.60593e+02	1.44600e+03	9.77077e-01	1.60500e+02
1447	1.60666e+02	1.44700e+03	9.77072e-01	1.60583e+02
1448	1.60752e+02	1.44800e+03	9.77072e-01	1.60667e+02
1449	1.60836e+02	1.44900e+03	9.77070e-01	1.60750e+02
1450	1.60915e+02	1.45000e+03	9.77066e-01	1.60833e+02
1451	1.61007e+02	1.45100e+03	9.77059e-01	1.60917e+02
