Index	Ts	t	Weight	Tr
[#]	[°C]	[s]	[mg]	[°C]
681	1.30360e+02	6.81000e+02	2.94763	130.5
682	1.30871e+02	6.82000e+02	2.94757	131.0
683	1.31358e+02	6.83000e+02	2.94751	131.5
684	1.31875e+02	6.84000e+02	2.94743	132.0
685	1.32384e+02	6.85000e+02	2.94737	132.5
686	1.32875e+02	6.86000e+02	2.9473	133.0
687	1.33380e+02	6.87000e+02	2.94724	133.5
688	1.33881e+02	6.88000e+02	2.94719	134.0
689	1.34381e+02	6.89000e+02	2.94715	134.5
690	1.34895e+02	6.90000e+02	2.9471	135.0
691	1.35397e+02	6.91000e+02	2.94706	135.5
692	1.35903e+02	6.92000e+02	2.94702	136.0
693	1.36412e+02	6.93000e+02	2.94695	136.5
694	1.36920e+02	6.94000e+02	2.94688	137.0
695	1.37418e+02	6.95000e+02	2.9468	137.5
696	1.37913e+02	6.96000e+02	2.9467	138.0
697	1.38417e+02	6.97000e+02	2.94661	138.5
698	1.38921e+02	6.98000e+02	2.94653	139.0
699	1.39422e+02	6.99000e+02	2.94645	139.5
700	1.39940e+02	7.00000e+02	2.94637	140.0
701	1.40435e+02	7.01000e+02	2.94629	140.5
702	1.40935e+02	7.02000e+02	2.94621	141.0
703	1.41436e+02	7.03000e+02	2.94613	141.5
704	1.41942e+02	7.04000e+02	2.94604	142.0
705	1.42448e+02	7.05000e+02	2.94595	142.5
706	1.42953e+02	7.06000e+02	2.94586	143.0
707	1.43464e+02	7.07000e+02	2.94577	143.5
708	1.43961e+02	7.08000e+02	2.94567	144.0
709	1.44468e+02	7.09000e+02	2.94556	144.5
710	1.44978e+02	7.10000e+02	2.94545	145.0
711	1.45473e+02	7.11000e+02	2.94533	145.5
712	1.45979e+02	7.12000e+02	2.94519	146.0
713	1.46494e+02	7.13000e+02	2.94507	146.5
714	1.46971e+02	7.14000e+02	2.94494	147.0
715	1.47493e+02	7.15000e+02	2.9448	147.5
716	1.47987e+02	7.16000e+02	2.94466	148.0
717	1.48485e+02	7.17000e+02	2.94452	148.5
718	1.48995e+02	7.18000e+02	2.94437	149.0
719	1.49506e+02	7.19000e+02	2.94422	149.5
720	1.50008e+02	7.20000e+02	2.94404	150.0
721	1.50510e+02	7.21000e+02	2.94387	150.5
722	1.51017e+02	7.22000e+02	2.9437	151.0
723	1.51526e+02	7.23000e+02	2.94352	151.5
724	1.52013e+02	7.24000e+02	2.94333	152.0
725	1.52529e+02	7.25000e+02	2.94314	152.5
726	1.53038e+02	7.26000e+02	2.94294	153.0
727	1.53538e+02	7.27000e+02	2.94273	153.5
728	1.54037e+02	7.28000e+02	2.94252	154.0
729	1.54556e+02	7.29000e+02	2.94231	154.5
730	1.55058e+02	7.30000e+02	2.9421	155.0
731	1.55553e+02	7.31000e+02	2.94189	155.5
732	1.56058e+02	7.32000e+02	2.94168	156.0
733	1.56564e+02	7.33000e+02	2.94147	156.5
734	1.57076e+02	7.34000e+02	2.94126	157.0
735	1.57587e+02	7.35000e+02	2.94105	157.5
736	1.58090e+02	7.36000e+02	2.94083	158.0
737	1.58597e+02	7.37000e+02	2.94061	158.5
738	1.59100e+02	7.38000e+02	2.94039	159.0
739	1.59609e+02	7.39000e+02	2.94017	159.5
740	1.60115e+02	7.40000e+02	2.93994	160.0
741	1.60626e+02	7.41000e+02	2.93971	160.5
742	1.61131e+02	7.42000e+02	2.93948	161.0
743	1.61639e+02	7.43000e+02	2.93924	161.5
744	1.62134e+02	7.44000e+02	2.93899	162.0
745	1.62640e+02	7.45000e+02	2.93875	162.5
746	1.63148e+02	7.46000e+02	2.9385	163.0
747	1.63661e+02	7.47000e+02	2.93825	163.5
748	1.64174e+02	7.48000e+02	2.93799	164.0
749	1.64666e+02	7.49000e+02	2.93773	164.5
750	1.65181e+02	7.50000e+02	2.93747	165.0
751	1.65684e+02	7.51000e+02	2.93721	165.5
752	1.66192e+02	7.52000e+02	2.93694	166.0
753	1.66711e+02	7.53000e+02	2.93666	166.5
754	1.67214e+02	7.54000e+02	2.93637	167.0
755	1.67730e+02	7.55000e+02	2.93608	167.5
756	1.68225e+02	7.56000e+02	2.93577	168.0
757	1.68746e+02	7.57000e+02	2.93546	168.5
758	1.69247e+02	7.58000e+02	2.93515	169.0
759	1.69756e+02	7.59000e+02	2.93484	169.5
760	1.70271e+02	7.60000e+02	2.93451	170.0
761	1.70769e+02	7.61000e+02	2.93418	170.5
762	1.71265e+02	7.62000e+02	2.93384	171.0
763	1.71777e+02	7.63000e+02	2.9335	171.5
764	1.72279e+02	7.64000e+02	2.93314	172.0
765	1.72781e+02	7.65000e+02	2.93278	172.5
766	1.73285e+02	7.66000e+02	2.93241	173.0
767	1.73804e+02	7.67000e+02	2.93203	173.5
768	1.74314e+02	7.68000e+02	2.93162	174.0
769	1.74822e+02	7.69000e+02	2.9312	174.5
770	1.75321e+02	7.70000e+02	2.93078	175.0
771	1.75836e+02	7.71000e+02	2.93035	175.5
772	1.76339e+02	7.72000e+02	2.92988	176.0
773	1.76845e+02	7.73000e+02	2.92943	176.5
774	1.77354e+02	7.74000e+02	2.92898	177.0
775	1.77862e+02	7.75000e+02	2.92853	177.5
776	1.78371e+02	7.76000e+02	2.92806	178.0
777	1.78877e+02	7.77000e+02	2.92757	178.5
778	1.79400e+02	7.78000e+02	2.92706	179.0
779	1.79900e+02	7.79000e+02	2.92653	179.5
780	1.80397e+02	7.80000e+02	2.92592	180.0
781	1.80921e+02	7.81000e+02	2.92532	180.5
782	1.81420e+02	7.82000e+02	2.92469	181.0
783	1.81924e+02	7.83000e+02	2.92405	181.5
784	1.82434e+02	7.84000e+02	2.9233	182.0
785	1.82941e+02	7.85000e+02	2.92256	182.5
786	1.83444e+02	7.86000e+02	2.92179	183.0
787	1.83949e+02	7.87000e+02	2.921	183.5
788	1.84467e+02	7.88000e+02	2.92013	184.0
789	1.84977e+02	7.89000e+02	2.91929	184.5
790	1.85468e+02	7.90000e+02	2.91844	185.0
791	1.85983e+02	7.91000e+02	2.91759	185.5
792	1.86500e+02	7.92000e+02	2.91666	186.0
793	1.86997e+02	7.93000e+02	2.91569	186.5
794	1.87517e+02	7.94000e+02	2.91466	187.0
795	1.88023e+02	7.95000e+02	2.91357	187.5
796	1.88527e+02	7.96000e+02	2.91228	188.0
797	1.89024e+02	7.97000e+02	2.91101	188.5
798	1.89540e+02	7.98000e+02	2.90971	189.0
799	1.90040e+02	7.99000e+02	2.90839	189.5
800	1.90558e+02	8.00000e+02	2.90694	190.0
801	1.91064e+02	8.01000e+02	2.90559	190.5
802	1.91558e+02	8.02000e+02	2.90428	191.0
803	1.92076e+02	8.03000e+02	2.90297	191.5
804	1.92582e+02	8.04000e+02	2.90174	192.0
805	1.93086e+02	8.05000e+02	2.90045	192.5
806	1.93594e+02	8.06000e+02	2.89914	193.0
807	1.94105e+02	8.07000e+02	2.89781	193.5
808	1.94609e+02	8.08000e+02	2.89644	194.0
809	1.95122e+02	8.09000e+02	2.89506	194.5
810	1.95631e+02	8.10000e+02	2.89366	195.0
811	1.96143e+02	8.11000e+02	2.89226	195.5
812	1.96645e+02	8.12000e+02	2.8908	196.0
813	1.97155e+02	8.13000e+02	2.88937	196.5
814	1.97661e+02	8.14000e+02	2.88794	197.0
815	1.98172e+02	8.15000e+02	2.88651	197.5
816	1.98685e+02	8.16000e+02	2.8851	198.0
817	1.99187e+02	8.17000e+02	2.8837	198.5
818	1.99705e+02	8.18000e+02	2.8823	199.0
819	2.00205e+02	8.19000e+02	2.88091	199.5
820	2.00712e+02	8.20000e+02	2.87955	200.0
821	2.01224e+02	8.21000e+02	2.87819	200.5
822	2.01735e+02	8.22000e+02	2.87684	201.0
823	2.02251e+02	8.23000e+02	2.8755	201.5
824	2.02758e+02	8.24000e+02	2.87423	202.0
825	2.03265e+02	8.25000e+02	2.87297	202.5
826	2.03767e+02	8.26000e+02	2.87174	203.0
827	2.04288e+02	8.27000e+02	2.87053	203.5
828	2.04789e+02	8.28000e+02	2.86944	204.0
829	2.05305e+02	8.29000e+02	2.86833	204.5
830	2.05810e+02	8.30000e+02	2.86725	205.0
831	2.06321e+02	8.31000e+02	2.86618	205.5
832	2.06836e+02	8.32000e+02	2.86522	206.0
833	2.07351e+02	8.33000e+02	2.86425	206.5
834	2.07847e+02	8.34000e+02	2.8633	207.0
835	2.08359e+02	8.35000e+02	2.86236	207.5
836	2.08858e+02	8.36000e+02	2.86153	208.0
837	2.09380e+02	8.37000e+02	2.86069	208.5
838	2.09880e+02	8.38000e+02	2.85987	209.0
839	2.10399e+02	8.39000e+02	2.85907	209.5
840	2.10902e+02	8.40000e+02	2.85839	210.0
841	2.11405e+02	8.41000e+02	2.85769	210.5
842	2.11929e+02	8.42000e+02	2.85702	211.0
843	2.12429e+02	8.43000e+02	2.85636	211.5
844	2.12940e+02	8.44000e+02	2.85579	212.0
845	2.13455e+02	8.45000e+02	2.8552	212.5
846	2.13970e+02	8.46000e+02	2.85462	213.0
847	2.14466e+02	8.47000e+02	2.85405	213.5
848	2.14980e+02	8.48000e+02	2.85354	214.0
849	2.15501e+02	8.49000e+02	2.85303	214.5
850	2.16020e+02	8.50000e+02	2.85254	215.0
851	2.16523e+02	8.51000e+02	2.85205	215.5
852	2.17018e+02	8.52000e+02	2.85162	216.0
853	2.17532e+02	8.53000e+02	2.85118	216.5
854	2.18028e+02	8.54000e+02	2.85074	217.0
855	2.18541e+02	8.55000e+02	2.85031	217.5
856	2.19065e+02	8.56000e+02	2.84992	218.0
857	2.19560e+02	8.57000e+02	2.84953	218.5
858	2.20079e+02	8.58000e+02	2.84916	219.0
859	2.20584e+02	8.59000e+02	2.84879	219.5
860	2.21108e+02	8.60000e+02	2.84847	220.0
861	2.21610e+02	8.61000e+02	2.84812	220.5
862	2.22119e+02	8.62000e+02	2.84777	221.0
863	2.22617e+02	8.63000e+02	2.84743	221.5
864	2.23119e+02	8.64000e+02	2.84708	222.0
865	2.23633e+02	8.65000e+02	2.84674	222.5
866	2.24143e+02	8.66000e+02	2.8464	223.0
867	2.24633e+02	8.67000e+02	2.84606	223.5
868	2.25123e+02	8.68000e+02	2.84572	224.0
869	2.25615e+02	8.69000e+02	2.84539	224.5
870	2.26117e+02	8.70000e+02	2.84506	225.0
871	2.26618e+02	8.71000e+02	2.84474	225.5
872	2.27112e+02	8.72000e+02	2.84442	226.0
873	2.27623e+02	8.73000e+02	2.84409	226.5
874	2.28122e+02	8.74000e+02	2.84375	227.0
875	2.28630e+02	8.75000e+02	2.8434	227.5
876	2.29117e+02	8.76000e+02	2.84303	228.0
877	2.29644e+02	8.77000e+02	2.84265	228.5
878	2.30153e+02	8.78000e+02	2.84228	229.0
879	2.30651e+02	8.79000e+02	2.8419	229.5
880	2.31160e+02	8.80000e+02	2.84148	230.0
881	2.31661e+02	8.81000e+02	2.84108	230.5
882	2.32167e+02	8.82000e+02	2.84067	231.0
883	2.32678e+02	8.83000e+02	2.84026	231.5
884	2.33177e+02	8.84000e+02	2.83986	232.0
885	2.33702e+02	8.85000e+02	2.83948	232.5
886	2.34208e+02	8.86000e+02	2.83911	233.0
887	2.34731e+02	8.87000e+02	2.83875	233.5
888	2.35274e+02	8.88000e+02	2.83843	234.0
889	2.35802e+02	8.89000e+02	2.83809	234.5
890	2.36372e+02	8.90000e+02	2.83774	235.0
891	2.36879e+02	8.91000e+02	2.83738	235.5
892	2.37397e+02	8.92000e+02	2.83702	236.0
893	2.37910e+02	8.93000e+02	2.83666	236.5
894	2.38423e+02	8.94000e+02	2.83628	237.0
895	2.38968e+02	8.95000e+02	2.8359	237.5
896	2.39494e+02	8.96000e+02	2.8355	238.0
897	2.40024e+02	8.97000e+02	2.83511	238.5
898	2.40517e+02	8.98000e+02	2.83473	239.0
899	2.41050e+02	8.99000e+02	2.83435	239.5
900	2.41577e+02	9.00000e+02	2.83398	240.0
901	2.42089e+02	9.01000e+02	2.83361	240.5
902	2.42610e+02	9.02000e+02	2.83325	241.0
903	2.43142e+02	9.03000e+02	2.83289	241.5
904	2.43679e+02	9.04000e+02	2.83256	242.0
905	2.44188e+02	9.05000e+02	2.83221	242.5
906	2.44734e+02	9.06000e+02	2.83187	243.0
907	2.45222e+02	9.07000e+02	2.83153	243.5
908	2.45735e+02	9.08000e+02	2.83121	244.0
909	2.46238e+02	9.09000e+02	2.83087	244.5
910	2.46750e+02	9.10000e+02	2.83054	245.0
911	2.47255e+02	9.11000e+02	2.83021	245.5
912	2.47766e+02	9.12000e+02	2.82988	246.0
913	2.48276e+02	9.13000e+02	2.82955	246.5
914	2.48797e+02	9.14000e+02	2.82923	247.0
915	2.49300e+02	9.15000e+02	2.82891	247.5
916	2.49816e+02	9.16000e+02	2.8286	248.0
917	2.50351e+02	9.17000e+02	2.82831	248.5
918	2.50874e+02	9.18000e+02	2.82802	249.0
919	2.51388e+02	9.19000e+02	2.82773	249.5
920	2.51902e+02	9.20000e+02	2.82747	250.0
921	2.52436e+02	9.21000e+02	2.8272	250.5
922	2.52967e+02	9.22000e+02	2.82693	251.0
923	2.53478e+02	9.23000e+02	2.82666	251.5
924	2.53988e+02	9.24000e+02	2.82641	252.0
925	2.54489e+02	9.25000e+02	2.82616	252.5
926	2.54994e+02	9.26000e+02	2.8259	253.0
927	2.55515e+02	9.27000e+02	2.82565	253.5
928	2.56024e+02	9.28000e+02	2.8254	254.0
929	2.56491e+02	9.29000e+02	2.82515	254.5
930	2.56971e+02	9.30000e+02	2.82489	255.0
931	2.57473e+02	9.31000e+02	2.82464	255.5
932	2.57986e+02	9.32000e+02	2.82437	256.0
933	2.58496e+02	9.33000e+02	2.82413	256.5
934	2.58997e+02	9.34000e+02	2.82388	257.0
935	2.59513e+02	9.35000e+02	2.82364	257.5
936	2.60039e+02	9.36000e+02	2.82342	258.0
937	2.60555e+02	9.37000e+02	2.82318	258.5
938	2.61086e+02	9.38000e+02	2.82294	259.0
939	2.61581e+02	9.39000e+02	2.82269	259.5
940	2.62099e+02	9.40000e+02	2.82244	260.0
941	2.62583e+02	9.41000e+02	2.8222	260.5
942	2.63100e+02	9.42000e+02	2.82195	261.0
943	2.63622e+02	9.43000e+02	2.8217	261.5
944	2.64111e+02	9.44000e+02	2.82143	262.0
945	2.64641e+02	9.45000e+02	2.82116	262.5
946	2.65152e+02	9.46000e+02	2.82088	263.0
947	2.65670e+02	9.47000e+02	2.82061	263.5
948	2.66191e+02	9.48000e+02	2.82031	264.0
949	2.66710e+02	9.49000e+02	2.82003	264.5
950	2.67221e+02	9.50000e+02	2.81975	265.0
951	2.67735e+02	9.51000e+02	2.81947	265.5
952	2.68255e+02	9.52000e+02	2.8192	266.0
953	2.68761e+02	9.53000e+02	2.81892	266.5
954	2.69280e+02	9.54000e+02	2.81864	267.0
955	2.69778e+02	9.55000e+02	2.81836	267.5
956	2.70275e+02	9.56000e+02	2.81807	268.0
957	2.70787e+02	9.57000e+02	2.8178	268.5
958	2.71318e+02	9.58000e+02	2.81752	269.0
959	2.71845e+02	9.59000e+02	2.81724	269.5
960	2.72336e+02	9.60000e+02	2.81697	270.0
961	2.72831e+02	9.61000e+02	2.81668	270.5
962	2.73324e+02	9.62000e+02	2.81639	271.0
963	2.73832e+02	9.63000e+02	2.81609	271.5
964	2.74352e+02	9.64000e+02	2.81577	272.0
965	2.74874e+02	9.65000e+02	2.81546	272.5
966	2.75369e+02	9.66000e+02	2.81514	273.0
967	2.75924e+02	9.67000e+02	2.81482	273.5
968	2.76452e+02	9.68000e+02	2.81447	274.0
969	2.76963e+02	9.69000e+02	2.81413	274.5
970	2.77490e+02	9.70000e+02	2.81377	275.0
971	2.77991e+02	9.71000e+02	2.8134	275.5
972	2.78517e+02	9.72000e+02	2.81301	276.0
973	2.79045e+02	9.73000e+02	2.81261	276.5
974	2.79571e+02	9.74000e+02	2.81222	277.0
975	2.80105e+02	9.75000e+02	2.81181	277.5
976	2.80630e+02	9.76000e+02	2.81139	278.0
977	2.81140e+02	9.77000e+02	2.81096	278.5
978	2.81638e+02	9.78000e+02	2.81053	279.0
979	2.82142e+02	9.79000e+02	2.81009	279.5
980	2.82666e+02	9.80000e+02	2.80961	280.0
981	2.83164e+02	9.81000e+02	2.80914	280.5
982	2.83666e+02	9.82000e+02	2.80866	281.0
983	2.84173e+02	9.83000e+02	2.80817	281.5
984	2.84667e+02	9.84000e+02	2.80763	282.0
985	2.85153e+02	9.85000e+02	2.80709	282.5
986	2.85649e+02	9.86000e+02	2.80653	283.0
987	2.86137e+02	9.87000e+02	2.80596	283.5
988	2.86633e+02	9.88000e+02	2.80533	284.0
989	2.87161e+02	9.89000e+02	2.8047	284.5
990	2.87663e+02	9.90000e+02	2.80405	285.0
991	2.88158e+02	9.91000e+02	2.8034	285.5
992	2.88678e+02	9.92000e+02	2.80267	286.0
993	2.89194e+02	9.93000e+02	2.80195	286.5
994	2.89704e+02	9.94000e+02	2.80122	287.0
995	2.90224e+02	9.95000e+02	2.80048	287.5
996	2.90724e+02	9.96000e+02	2.79967	288.0
997	2.91224e+02	9.97000e+02	2.79886	288.5
998	2.91732e+02	9.98000e+02	2.79803	289.0
999	2.92261e+02	9.99000e+02	2.79719	289.5
1000	2.92781e+02	1.00000e+03	2.79627	290.0
1001	2.93312e+02	1.00100e+03	2.79536	290.5
1002	2.93824e+02	1.00200e+03	2.79443	291.0
1003	2.94331e+02	1.00300e+03	2.79347	291.5
1004	2.94826e+02	1.00400e+03	2.7924	292.0
1005	2.95327e+02	1.00500e+03	2.79133	292.5
1006	2.95848e+02	1.00600e+03	2.79023	293.0
1007	2.96348e+02	1.00700e+03	2.78911	293.5
1008	2.96861e+02	1.00800e+03	2.78789	294.0
1009	2.97385e+02	1.00900e+03	2.78672	294.5
1010	2.97879e+02	1.01000e+03	2.78556	295.0
1011	2.98390e+02	1.01100e+03	2.78439	295.5
1012	2.98902e+02	1.01200e+03	2.78319	296.0
1013	2.99411e+02	1.01300e+03	2.78197	296.5
1014	2.99911e+02	1.01400e+03	2.78071	297.0
1015	3.00428e+02	1.01500e+03	2.77943	297.5
1016	3.00938e+02	1.01600e+03	2.77802	298.0
1017	3.01446e+02	1.01700e+03	2.77662	298.5
1018	3.01980e+02	1.01800e+03	2.77517	299.0
1019	3.02484e+02	1.01900e+03	2.7737	299.5
1020	3.02976e+02	1.02000e+03	2.77207	300.0
1021	3.03495e+02	1.02100e+03	2.77047	300.5
1022	3.04017e+02	1.02200e+03	2.76886	301.0
1023	3.04524e+02	1.02300e+03	2.76722	301.5
1024	3.05039e+02	1.02400e+03	2.76548	302.0
1025	3.05546e+02	1.02500e+03	2.76376	302.5
1026	3.06057e+02	1.02600e+03	2.76202	303.0
1027	3.06575e+02	1.02700e+03	2.76027	303.5
1028	3.07129e+02	1.02800e+03	2.75842	304.0
1029	3.07632e+02	1.02900e+03	2.75659	304.5
1030	3.08184e+02	1.03000e+03	2.75473	305.0
1031	3.08712e+02	1.03100e+03	2.75286	305.5
1032	3.09241e+02	1.03200e+03	2.75089	306.0
1033	3.09775e+02	1.03300e+03	2.74894	306.5
1034	3.10276e+02	1.03400e+03	2.74698	307.0
1035	3.10810e+02	1.03500e+03	2.74501	307.5
1036	3.11342e+02	1.03600e+03	2.74295	308.0
1037	3.11869e+02	1.03700e+03	2.7409	308.5
1038	3.12409e+02	1.03800e+03	2.73884	309.0
1039	3.12926e+02	1.03900e+03	2.73676	309.5
1040	3.13470e+02	1.04000e+03	2.73461	310.0
1041	3.14004e+02	1.04100e+03	2.73248	310.5
1042	3.14513e+02	1.04200e+03	2.73034	311.0
1043	3.15025e+02	1.04300e+03	2.7282	311.5
1044	3.15546e+02	1.04400e+03	2.72601	312.0
1045	3.16128e+02	1.04500e+03	2.72384	312.5
1046	3.16611e+02	1.04600e+03	2.72166	313.0
1047	3.17139e+02	1.04700e+03	2.71947	313.5
1048	3.17698e+02	1.04800e+03	2.71726	314.0
1049	3.18237e+02	1.04900e+03	2.71505	314.5
1050	3.18760e+02	1.05000e+03	2.71284	315.0
1051	3.19280e+02	1.05100e+03	2.71063	315.5
1052	3.19810e+02	1.05200e+03	2.70838	316.0
1053	3.20341e+02	1.05300e+03	2.70615	316.5
1054	3.20856e+02	1.05400e+03	2.70391	317.0
1055	3.21369e+02	1.05500e+03	2.70166	317.5
1056	3.21865e+02	1.05600e+03	2.6994	318.0
1057	3.22378e+02	1.05700e+03	2.69715	318.5
1058	3.22902e+02	1.05800e+03	2.6949	319.0
1059	3.23407e+02	1.05900e+03	2.69265	319.5
1060	3.23923e+02	1.06000e+03	2.69038	320.0
1061	3.24438e+02	1.06100e+03	2.68811	320.5
1062	3.24946e+02	1.06200e+03	2.68582	321.0
1063	3.25458e+02	1.06300e+03	2.68352	321.5
1064	3.25955e+02	1.06400e+03	2.68118	322.0
1065	3.26459e+02	1.06500e+03	2.67884	322.5
1066	3.26966e+02	1.06600e+03	2.67648	323.0
1067	3.27490e+02	1.06700e+03	2.67412	323.5
1068	3.27991e+02	1.06800e+03	2.67168	324.0
1069	3.28491e+02	1.06900e+03	2.66924	324.5
1070	3.29006e+02	1.07000e+03	2.66678	325.0
1071	3.29519e+02	1.07100e+03	2.6643	325.5
1072	3.30021e+02	1.07200e+03	2.6617	326.0
1073	3.30515e+02	1.07300e+03	2.6591	326.5
1074	3.31024e+02	1.07400e+03	2.65647	327.0
1075	3.31513e+02	1.07500e+03	2.6538	327.5
1076	3.32022e+02	1.07600e+03	2.65095	328.0
1077	3.32498e+02	1.07700e+03	2.64812	328.5
1078	3.32973e+02	1.07800e+03	2.64524	329.0
1079	3.33460e+02	1.07900e+03	2.64231	329.5
1080	3.33962e+02	1.08000e+03	2.63916	330.0
1081	3.34469e+02	1.08100e+03	2.63603	330.5
1082	3.34969e+02	1.08200e+03	2.63282	331.0
1083	3.35475e+02	1.08300e+03	2.62956	331.5
1084	3.35980e+02	1.08400e+03	2.626	332.0
1085	3.36474e+02	1.08500e+03	2.62246	332.5
1086	3.37010e+02	1.08600e+03	2.61884	333.0
1087	3.37518e+02	1.08700e+03	2.61515	333.5
1088	3.38025e+02	1.08800e+03	2.61109	334.0
1089	3.38540e+02	1.08900e+03	2.60707	334.5
1090	3.39032e+02	1.09000e+03	2.60297	335.0
1091	3.39536e+02	1.09100e+03	2.59881	335.5
1092	3.40043e+02	1.09200e+03	2.59426	336.0
1093	3.40532e+02	1.09300e+03	2.58977	336.5
1094	3.41026e+02	1.09400e+03	2.58519	337.0
1095	3.41533e+02	1.09500e+03	2.58054	337.5
1096	3.42069e+02	1.09600e+03	2.5755	338.0
1097	3.42579e+02	1.09700e+03	2.57049	338.5
1098	3.43071e+02	1.09800e+03	2.56537	339.0
1099	3.43605e+02	1.09900e+03	2.56016	339.5
1100	3.44113e+02	1.10000e+03	2.55446	340.0
1101	3.44630e+02	1.10100e+03	2.54879	340.5
1102	3.45178e+02	1.10200e+03	2.54299	341.0
1103	3.45690e+02	1.10300e+03	2.53707	341.5
1104	3.46199e+02	1.10400e+03	2.53054	342.0
1105	3.46699e+02	1.10500e+03	2.52406	342.5
1106	3.47173e+02	1.10600e+03	2.51743	343.0
1107	3.47657e+02	1.10700e+03	2.51068	343.5
1108	3.48164e+02	1.10800e+03	2.50326	344.0
1109	3.48690e+02	1.10900e+03	2.49593	344.5
1110	3.49202e+02	1.11000e+03	2.48846	345.0
1111	3.49717e+02	1.11100e+03	2.48086	345.5
1112	3.50195e+02	1.11200e+03	2.47259	346.0
1113	3.50740e+02	1.11300e+03	2.4644	346.5
1114	3.51232e+02	1.11400e+03	2.45606	347.0
1115	3.51747e+02	1.11500e+03	2.44758	347.5
1116	3.52248e+02	1.11600e+03	2.43839	348.0
1117	3.52772e+02	1.11700e+03	2.42928	348.5
1118	3.53264e+02	1.11800e+03	2.41999	349.0
1119	3.53735e+02	1.11900e+03	2.41055	349.5
1120	3.54219e+02	1.12000e+03	2.40034	350.0
1121	3.54719e+02	1.12100e+03	2.39021	350.5
1122	3.55212e+02	1.12200e+03	2.3799	351.0
1123	3.55701e+02	1.12300e+03	2.36943	351.5
1124	3.56211e+02	1.12400e+03	2.35812	352.0
1125	3.56712e+02	1.12500e+03	2.34693	352.5
1126	3.57252e+02	1.12600e+03	2.33556	353.0
1127	3.57770e+02	1.12700e+03	2.32404	353.5
1128	3.58241e+02	1.12800e+03	2.31169	354.0
1129	3.58701e+02	1.12900e+03	2.29944	354.5
1130	3.59191e+02	1.13000e+03	2.28702	355.0
1131	3.59668e+02	1.13100e+03	2.27445	355.5
1132	3.60185e+02	1.13200e+03	2.26105	356.0
1133	3.60691e+02	1.13300e+03	2.24776	356.5
1134	3.61184e+02	1.13400e+03	2.23429	357.0
1135	3.61656e+02	1.13500e+03	2.22065	357.5
1136	3.62133e+02	1.13600e+03	2.20615	358.0
1137	3.62568e+02	1.13700e+03	2.19174	358.5
1138	3.63047e+02	1.13800e+03	2.17714	359.0
1139	3.63546e+02	1.13900e+03	2.16238	359.5
1140	3.64093e+02	1.14000e+03	2.14671	360.0
1141	3.64590e+02	1.14100e+03	2.1312	360.5
