index	ts	t	weight	tr
[#]	[°C]	[s]	[mg]	[°C]
683	1.30824e+02	6.83000e+02	1.20573e+01	1.31500e+02
684	1.31315e+02	6.84000e+02	1.20572e+01	1.32000e+02
685	1.31824e+02	6.85000e+02	1.20570e+01	1.32500e+02
686	1.32327e+02	6.86000e+02	1.20569e+01	1.33000e+02
687	1.32852e+02	6.87000e+02	1.20568e+01	1.33500e+02
688	1.33353e+02	6.88000e+02	1.20566e+01	1.34000e+02
689	1.33844e+02	6.89000e+02	1.20565e+01	1.34500e+02
690	1.34342e+02	6.90000e+02	1.20563e+01	1.35000e+02
691	1.34854e+02	6.91000e+02	1.20562e+01	1.35500e+02
692	1.35349e+02	6.92000e+02	1.20560e+01	1.36000e+02
693	1.35851e+02	6.93000e+02	1.20558e+01	1.36500e+02
694	1.36363e+02	6.94000e+02	1.20556e+01	1.37000e+02
695	1.36858e+02	6.95000e+02	1.20554e+01	1.37500e+02
696	1.37355e+02	6.96000e+02	1.20552e+01	1.38000e+02
697	1.37875e+02	6.97000e+02	1.20549e+01	1.38500e+02
698	1.38373e+02	6.98000e+02	1.20547e+01	1.39000e+02
699	1.38871e+02	6.99000e+02	1.20545e+01	1.39500e+02
700	1.39382e+02	7.00000e+02	1.20542e+01	1.40000e+02
701	1.39871e+02	7.01000e+02	1.20540e+01	1.40500e+02
702	1.40391e+02	7.02000e+02	1.20537e+01	1.41000e+02
703	1.40892e+02	7.03000e+02	1.20534e+01	1.41500e+02
704	1.41389e+02	7.04000e+02	1.20531e+01	1.42000e+02
705	1.41885e+02	7.05000e+02	1.20527e+01	1.42500e+02
706	1.42387e+02	7.06000e+02	1.20524e+01	1.43000e+02
707	1.42887e+02	7.07000e+02	1.20521e+01	1.43500e+02
708	1.43394e+02	7.08000e+02	1.20517e+01	1.44000e+02
709	1.43898e+02	7.09000e+02	1.20513e+01	1.44500e+02
710	1.44401e+02	7.10000e+02	1.20509e+01	1.45000e+02
711	1.44900e+02	7.11000e+02	1.20505e+01	1.45500e+02
712	1.45399e+02	7.12000e+02	1.20501e+01	1.46000e+02
713	1.45897e+02	7.13000e+02	1.20497e+01	1.46500e+02
714	1.46410e+02	7.14000e+02	1.20493e+01	1.47000e+02
715	1.46919e+02	7.15000e+02	1.20488e+01	1.47500e+02
716	1.47423e+02	7.16000e+02	1.20483e+01	1.48000e+02
717	1.47919e+02	7.17000e+02	1.20478e+01	1.48500e+02
718	1.48415e+02	7.18000e+02	1.20473e+01	1.49000e+02
719	1.48919e+02	7.19000e+02	1.20468e+01	1.49500e+02
720	1.49441e+02	7.20000e+02	1.20462e+01	1.50000e+02
721	1.49940e+02	7.21000e+02	1.20456e+01	1.50500e+02
722	1.50442e+02	7.22000e+02	1.20450e+01	1.51000e+02
723	1.50943e+02	7.23000e+02	1.20444e+01	1.51500e+02
724	1.51446e+02	7.24000e+02	1.20437e+01	1.52000e+02
725	1.51947e+02	7.25000e+02	1.20431e+01	1.52500e+02
726	1.52450e+02	7.26000e+02	1.20424e+01	1.53000e+02
727	1.52949e+02	7.27000e+02	1.20417e+01	1.53500e+02
728	1.53445e+02	7.28000e+02	1.20410e+01	1.54000e+02
729	1.53954e+02	7.29000e+02	1.20403e+01	1.54500e+02
730	1.54462e+02	7.30000e+02	1.20396e+01	1.55000e+02
731	1.54960e+02	7.31000e+02	1.20389e+01	1.55500e+02
732	1.55464e+02	7.32000e+02	1.20381e+01	1.56000e+02
733	1.55967e+02	7.33000e+02	1.20373e+01	1.56500e+02
734	1.56474e+02	7.34000e+02	1.20365e+01	1.57000e+02
735	1.56969e+02	7.35000e+02	1.20357e+01	1.57500e+02
736	1.57471e+02	7.36000e+02	1.20349e+01	1.58000e+02
737	1.57983e+02	7.37000e+02	1.20341e+01	1.58500e+02
738	1.58494e+02	7.38000e+02	1.20332e+01	1.59000e+02
739	1.58993e+02	7.39000e+02	1.20324e+01	1.59500e+02
740	1.59511e+02	7.40000e+02	1.20315e+01	1.60000e+02
741	1.60005e+02	7.41000e+02	1.20306e+01	1.60500e+02
742	1.60507e+02	7.42000e+02	1.20297e+01	1.61000e+02
743	1.61020e+02	7.43000e+02	1.20288e+01	1.61500e+02
744	1.61514e+02	7.44000e+02	1.20278e+01	1.62000e+02
745	1.62020e+02	7.45000e+02	1.20269e+01	1.62500e+02
746	1.62528e+02	7.46000e+02	1.20259e+01	1.63000e+02
747	1.63041e+02	7.47000e+02	1.20249e+01	1.63500e+02
748	1.63545e+02	7.48000e+02	1.20239e+01	1.64000e+02
749	1.64048e+02	7.49000e+02	1.20229e+01	1.64500e+02
750	1.64548e+02	7.50000e+02	1.20218e+01	1.65000e+02
751	1.65054e+02	7.51000e+02	1.20208e+01	1.65500e+02
752	1.65554e+02	7.52000e+02	1.20197e+01	1.66000e+02
753	1.66061e+02	7.53000e+02	1.20186e+01	1.66500e+02
754	1.66560e+02	7.54000e+02	1.20175e+01	1.67000e+02
755	1.67066e+02	7.55000e+02	1.20163e+01	1.67500e+02
756	1.67586e+02	7.56000e+02	1.20151e+01	1.68000e+02
757	1.68092e+02	7.57000e+02	1.20139e+01	1.68500e+02
758	1.68596e+02	7.58000e+02	1.20126e+01	1.69000e+02
759	1.69090e+02	7.59000e+02	1.20114e+01	1.69500e+02
760	1.69610e+02	7.60000e+02	1.20100e+01	1.70000e+02
761	1.70101e+02	7.61000e+02	1.20086e+01	1.70500e+02
762	1.70601e+02	7.62000e+02	1.20072e+01	1.71000e+02
763	1.71104e+02	7.63000e+02	1.20058e+01	1.71500e+02
764	1.71617e+02	7.64000e+02	1.20042e+01	1.72000e+02
765	1.72121e+02	7.65000e+02	1.20026e+01	1.72500e+02
766	1.72627e+02	7.66000e+02	1.20010e+01	1.73000e+02
767	1.73123e+02	7.67000e+02	1.19994e+01	1.73500e+02
768	1.73638e+02	7.68000e+02	1.19976e+01	1.74000e+02
769	1.74143e+02	7.69000e+02	1.19958e+01	1.74500e+02
770	1.74631e+02	7.70000e+02	1.19940e+01	1.75000e+02
771	1.75147e+02	7.71000e+02	1.19921e+01	1.75500e+02
772	1.75644e+02	7.72000e+02	1.19899e+01	1.76000e+02
773	1.76157e+02	7.73000e+02	1.19878e+01	1.76500e+02
774	1.76654e+02	7.74000e+02	1.19857e+01	1.77000e+02
775	1.77155e+02	7.75000e+02	1.19834e+01	1.77500e+02
776	1.77666e+02	7.76000e+02	1.19809e+01	1.78000e+02
777	1.78173e+02	7.77000e+02	1.19784e+01	1.78500e+02
778	1.78679e+02	7.78000e+02	1.19758e+01	1.79000e+02
779	1.79172e+02	7.79000e+02	1.19732e+01	1.79500e+02
780	1.79673e+02	7.80000e+02	1.19702e+01	1.80000e+02
781	1.80180e+02	7.81000e+02	1.19672e+01	1.80500e+02
782	1.80683e+02	7.82000e+02	1.19641e+01	1.81000e+02
783	1.81185e+02	7.83000e+02	1.19610e+01	1.81500e+02
784	1.81673e+02	7.84000e+02	1.19575e+01	1.82000e+02
785	1.82190e+02	7.85000e+02	1.19540e+01	1.82500e+02
786	1.82691e+02	7.86000e+02	1.19504e+01	1.83000e+02
787	1.83193e+02	7.87000e+02	1.19467e+01	1.83500e+02
788	1.83701e+02	7.88000e+02	1.19426e+01	1.84000e+02
789	1.84196e+02	7.89000e+02	1.19385e+01	1.84500e+02
790	1.84701e+02	7.90000e+02	1.19343e+01	1.85000e+02
791	1.85217e+02	7.91000e+02	1.19300e+01	1.85500e+02
792	1.85715e+02	7.92000e+02	1.19252e+01	1.86000e+02
793	1.86207e+02	7.93000e+02	1.19205e+01	1.86500e+02
794	1.86712e+02	7.94000e+02	1.19157e+01	1.87000e+02
795	1.87222e+02	7.95000e+02	1.19107e+01	1.87500e+02
796	1.87728e+02	7.96000e+02	1.19053e+01	1.88000e+02
797	1.88228e+02	7.97000e+02	1.18999e+01	1.88500e+02
798	1.88736e+02	7.98000e+02	1.18945e+01	1.89000e+02
799	1.89238e+02	7.99000e+02	1.18889e+01	1.89500e+02
800	1.89747e+02	8.00000e+02	1.18829e+01	1.90000e+02
801	1.90248e+02	8.01000e+02	1.18770e+01	1.90500e+02
802	1.90760e+02	8.02000e+02	1.18710e+01	1.91000e+02
803	1.91267e+02	8.03000e+02	1.18649e+01	1.91500e+02
804	1.91757e+02	8.04000e+02	1.18584e+01	1.92000e+02
805	1.92268e+02	8.05000e+02	1.18520e+01	1.92500e+02
806	1.92775e+02	8.06000e+02	1.18454e+01	1.93000e+02
807	1.93294e+02	8.07000e+02	1.18388e+01	1.93500e+02
808	1.93789e+02	8.08000e+02	1.18319e+01	1.94000e+02
809	1.94297e+02	8.09000e+02	1.18251e+01	1.94500e+02
810	1.94812e+02	8.10000e+02	1.18182e+01	1.95000e+02
811	1.95318e+02	8.11000e+02	1.18112e+01	1.95500e+02
812	1.95825e+02	8.12000e+02	1.18041e+01	1.96000e+02
813	1.96330e+02	8.13000e+02	1.17970e+01	1.96500e+02
814	1.96829e+02	8.14000e+02	1.17899e+01	1.97000e+02
815	1.97336e+02	8.15000e+02	1.17827e+01	1.97500e+02
816	1.97851e+02	8.16000e+02	1.17754e+01	1.98000e+02
817	1.98357e+02	8.17000e+02	1.17682e+01	1.98500e+02
818	1.98870e+02	8.18000e+02	1.17610e+01	1.99000e+02
819	1.99380e+02	8.19000e+02	1.17538e+01	1.99500e+02
820	1.99881e+02	8.20000e+02	1.17466e+01	2.00000e+02
821	2.00393e+02	8.21000e+02	1.17394e+01	2.00500e+02
822	2.00914e+02	8.22000e+02	1.17322e+01	2.01000e+02
823	2.01407e+02	8.23000e+02	1.17250e+01	2.01500e+02
824	2.01930e+02	8.24000e+02	1.17180e+01	2.02000e+02
825	2.02444e+02	8.25000e+02	1.17110e+01	2.02500e+02
826	2.02952e+02	8.26000e+02	1.17040e+01	2.03000e+02
827	2.03469e+02	8.27000e+02	1.16971e+01	2.03500e+02
828	2.03979e+02	8.28000e+02	1.16905e+01	2.04000e+02
829	2.04506e+02	8.29000e+02	1.16839e+01	2.04500e+02
830	2.05013e+02	8.30000e+02	1.16773e+01	2.05000e+02
831	2.05521e+02	8.31000e+02	1.16709e+01	2.05500e+02
832	2.06026e+02	8.32000e+02	1.16648e+01	2.06000e+02
833	2.06540e+02	8.33000e+02	1.16588e+01	2.06500e+02
834	2.07044e+02	8.34000e+02	1.16528e+01	2.07000e+02
835	2.07549e+02	8.35000e+02	1.16470e+01	2.07500e+02
836	2.08072e+02	8.36000e+02	1.16416e+01	2.08000e+02
837	2.08582e+02	8.37000e+02	1.16362e+01	2.08500e+02
838	2.09096e+02	8.38000e+02	1.16309e+01	2.09000e+02
839	2.09605e+02	8.39000e+02	1.16258e+01	2.09500e+02
840	2.10105e+02	8.40000e+02	1.16212e+01	2.10000e+02
841	2.10627e+02	8.41000e+02	1.16165e+01	2.10500e+02
842	2.11141e+02	8.42000e+02	1.16120e+01	2.11000e+02
843	2.11653e+02	8.43000e+02	1.16075e+01	2.11500e+02
844	2.12155e+02	8.44000e+02	1.16037e+01	2.12000e+02
845	2.12683e+02	8.45000e+02	1.15998e+01	2.12500e+02
846	2.13192e+02	8.46000e+02	1.15960e+01	2.13000e+02
847	2.13700e+02	8.47000e+02	1.15923e+01	2.13500e+02
848	2.14223e+02	8.48000e+02	1.15892e+01	2.14000e+02
849	2.14744e+02	8.49000e+02	1.15860e+01	2.14500e+02
850	2.15261e+02	8.50000e+02	1.15829e+01	2.15000e+02
851	2.15764e+02	8.51000e+02	1.15799e+01	2.15500e+02
852	2.16297e+02	8.52000e+02	1.15774e+01	2.16000e+02
853	2.16822e+02	8.53000e+02	1.15748e+01	2.16500e+02
854	2.17318e+02	8.54000e+02	1.15723e+01	2.17000e+02
855	2.17864e+02	8.55000e+02	1.15699e+01	2.17500e+02
856	2.18377e+02	8.56000e+02	1.15678e+01	2.18000e+02
857	2.18884e+02	8.57000e+02	1.15656e+01	2.18500e+02
858	2.19412e+02	8.58000e+02	1.15635e+01	2.19000e+02
859	2.19935e+02	8.59000e+02	1.15614e+01	2.19500e+02
860	2.20493e+02	8.60000e+02	1.15596e+01	2.20000e+02
861	2.21008e+02	8.61000e+02	1.15577e+01	2.20500e+02
862	2.21553e+02	8.62000e+02	1.15559e+01	2.21000e+02
863	2.22091e+02	8.63000e+02	1.15540e+01	2.21500e+02
864	2.22609e+02	8.64000e+02	1.15524e+01	2.22000e+02
865	2.23139e+02	8.65000e+02	1.15507e+01	2.22500e+02
866	2.23652e+02	8.66000e+02	1.15490e+01	2.23000e+02
867	2.24170e+02	8.67000e+02	1.15474e+01	2.23500e+02
868	2.24688e+02	8.68000e+02	1.15458e+01	2.24000e+02
869	2.25206e+02	8.69000e+02	1.15442e+01	2.24500e+02
870	2.25725e+02	8.70000e+02	1.15426e+01	2.25000e+02
871	2.26228e+02	8.71000e+02	1.15410e+01	2.25500e+02
872	2.26734e+02	8.72000e+02	1.15394e+01	2.26000e+02
873	2.27247e+02	8.73000e+02	1.15379e+01	2.26500e+02
874	2.27761e+02	8.74000e+02	1.15363e+01	2.27000e+02
875	2.28260e+02	8.75000e+02	1.15347e+01	2.27500e+02
876	2.28786e+02	8.76000e+02	1.15332e+01	2.28000e+02
877	2.29283e+02	8.77000e+02	1.15316e+01	2.28500e+02
878	2.29799e+02	8.78000e+02	1.15300e+01	2.29000e+02
879	2.30308e+02	8.79000e+02	1.15285e+01	2.29500e+02
880	2.30837e+02	8.80000e+02	1.15269e+01	2.30000e+02
881	2.31341e+02	8.81000e+02	1.15253e+01	2.30500e+02
882	2.31869e+02	8.82000e+02	1.15237e+01	2.31000e+02
883	2.32401e+02	8.83000e+02	1.15222e+01	2.31500e+02
884	2.32916e+02	8.84000e+02	1.15206e+01	2.32000e+02
885	2.33433e+02	8.85000e+02	1.15190e+01	2.32500e+02
886	2.33975e+02	8.86000e+02	1.15174e+01	2.33000e+02
887	2.34502e+02	8.87000e+02	1.15159e+01	2.33500e+02
888	2.35014e+02	8.88000e+02	1.15143e+01	2.34000e+02
889	2.35527e+02	8.89000e+02	1.15128e+01	2.34500e+02
890	2.36034e+02	8.90000e+02	1.15113e+01	2.35000e+02
891	2.36545e+02	8.91000e+02	1.15097e+01	2.35500e+02
892	2.37058e+02	8.92000e+02	1.15082e+01	2.36000e+02
893	2.37562e+02	8.93000e+02	1.15067e+01	2.36500e+02
894	2.38070e+02	8.94000e+02	1.15051e+01	2.37000e+02
895	2.38576e+02	8.95000e+02	1.15036e+01	2.37500e+02
896	2.39104e+02	8.96000e+02	1.15021e+01	2.38000e+02
897	2.39632e+02	8.97000e+02	1.15006e+01	2.38500e+02
898	2.40150e+02	8.98000e+02	1.14991e+01	2.39000e+02
899	2.40670e+02	8.99000e+02	1.14976e+01	2.39500e+02
900	2.41193e+02	9.00000e+02	1.14961e+01	2.40000e+02
901	2.41688e+02	9.01000e+02	1.14947e+01	2.40500e+02
902	2.42211e+02	9.02000e+02	1.14932e+01	2.41000e+02
903	2.42718e+02	9.03000e+02	1.14918e+01	2.41500e+02
904	2.43219e+02	9.04000e+02	1.14904e+01	2.42000e+02
905	2.43737e+02	9.05000e+02	1.14890e+01	2.42500e+02
906	2.44229e+02	9.06000e+02	1.14876e+01	2.43000e+02
907	2.44733e+02	9.07000e+02	1.14863e+01	2.43500e+02
908	2.45243e+02	9.08000e+02	1.14850e+01	2.44000e+02
909	2.45751e+02	9.09000e+02	1.14837e+01	2.44500e+02
910	2.46239e+02	9.10000e+02	1.14824e+01	2.45000e+02
911	2.46750e+02	9.11000e+02	1.14811e+01	2.45500e+02
912	2.47249e+02	9.12000e+02	1.14798e+01	2.46000e+02
913	2.47753e+02	9.13000e+02	1.14785e+01	2.46500e+02
914	2.48257e+02	9.14000e+02	1.14773e+01	2.47000e+02
915	2.48751e+02	9.15000e+02	1.14761e+01	2.47500e+02
916	2.49256e+02	9.16000e+02	1.14749e+01	2.48000e+02
917	2.49755e+02	9.17000e+02	1.14737e+01	2.48500e+02
918	2.50245e+02	9.18000e+02	1.14726e+01	2.49000e+02
919	2.50758e+02	9.19000e+02	1.14714e+01	2.49500e+02
920	2.51251e+02	9.20000e+02	1.14703e+01	2.50000e+02
921	2.51768e+02	9.21000e+02	1.14692e+01	2.50500e+02
922	2.52277e+02	9.22000e+02	1.14682e+01	2.51000e+02
923	2.52781e+02	9.23000e+02	1.14671e+01	2.51500e+02
924	2.53298e+02	9.24000e+02	1.14661e+01	2.52000e+02
925	2.53791e+02	9.25000e+02	1.14651e+01	2.52500e+02
926	2.54302e+02	9.26000e+02	1.14640e+01	2.53000e+02
927	2.54800e+02	9.27000e+02	1.14630e+01	2.53500e+02
928	2.55314e+02	9.28000e+02	1.14620e+01	2.54000e+02
929	2.55830e+02	9.29000e+02	1.14610e+01	2.54500e+02
930	2.56337e+02	9.30000e+02	1.14600e+01	2.55000e+02
931	2.56847e+02	9.31000e+02	1.14590e+01	2.55500e+02
932	2.57357e+02	9.32000e+02	1.14580e+01	2.56000e+02
933	2.57866e+02	9.33000e+02	1.14570e+01	2.56500e+02
934	2.58356e+02	9.34000e+02	1.14560e+01	2.57000e+02
935	2.58865e+02	9.35000e+02	1.14550e+01	2.57500e+02
936	2.59370e+02	9.36000e+02	1.14540e+01	2.58000e+02
937	2.59875e+02	9.37000e+02	1.14531e+01	2.58500e+02
938	2.60391e+02	9.38000e+02	1.14521e+01	2.59000e+02
939	2.60898e+02	9.39000e+02	1.14511e+01	2.59500e+02
940	2.61411e+02	9.40000e+02	1.14502e+01	2.60000e+02
941	2.61923e+02	9.41000e+02	1.14492e+01	2.60500e+02
942	2.62427e+02	9.42000e+02	1.14483e+01	2.61000e+02
943	2.62962e+02	9.43000e+02	1.14473e+01	2.61500e+02
944	2.63484e+02	9.44000e+02	1.14464e+01	2.62000e+02
945	2.63987e+02	9.45000e+02	1.14454e+01	2.62500e+02
946	2.64512e+02	9.46000e+02	1.14444e+01	2.63000e+02
947	2.65041e+02	9.47000e+02	1.14435e+01	2.63500e+02
948	2.65572e+02	9.48000e+02	1.14425e+01	2.64000e+02
949	2.66098e+02	9.49000e+02	1.14416e+01	2.64500e+02
950	2.66615e+02	9.50000e+02	1.14406e+01	2.65000e+02
951	2.67123e+02	9.51000e+02	1.14396e+01	2.65500e+02
952	2.67638e+02	9.52000e+02	1.14386e+01	2.66000e+02
953	2.68149e+02	9.53000e+02	1.14376e+01	2.66500e+02
954	2.68658e+02	9.54000e+02	1.14366e+01	2.67000e+02
955	2.69171e+02	9.55000e+02	1.14356e+01	2.67500e+02
956	2.69691e+02	9.56000e+02	1.14345e+01	2.68000e+02
957	2.70217e+02	9.57000e+02	1.14334e+01	2.68500e+02
958	2.70731e+02	9.58000e+02	1.14324e+01	2.69000e+02
959	2.71225e+02	9.59000e+02	1.14313e+01	2.69500e+02
960	2.71759e+02	9.60000e+02	1.14301e+01	2.70000e+02
961	2.72269e+02	9.61000e+02	1.14290e+01	2.70500e+02
962	2.72792e+02	9.62000e+02	1.14278e+01	2.71000e+02
963	2.73324e+02	9.63000e+02	1.14266e+01	2.71500e+02
964	2.73874e+02	9.64000e+02	1.14254e+01	2.72000e+02
965	2.74408e+02	9.65000e+02	1.14242e+01	2.72500e+02
966	2.74890e+02	9.66000e+02	1.14230e+01	2.73000e+02
967	2.75402e+02	9.67000e+02	1.14217e+01	2.73500e+02
968	2.75922e+02	9.68000e+02	1.14204e+01	2.74000e+02
969	2.76451e+02	9.69000e+02	1.14190e+01	2.74500e+02
970	2.76992e+02	9.70000e+02	1.14177e+01	2.75000e+02
971	2.77562e+02	9.71000e+02	1.14163e+01	2.75500e+02
972	2.78109e+02	9.72000e+02	1.14148e+01	2.76000e+02
973	2.78621e+02	9.73000e+02	1.14134e+01	2.76500e+02
974	2.79156e+02	9.74000e+02	1.14119e+01	2.77000e+02
975	2.79674e+02	9.75000e+02	1.14104e+01	2.77500e+02
976	2.80184e+02	9.76000e+02	1.14087e+01	2.78000e+02
977	2.80685e+02	9.77000e+02	1.14071e+01	2.78500e+02
978	2.81207e+02	9.78000e+02	1.14054e+01	2.79000e+02
979	2.81739e+02	9.79000e+02	1.14037e+01	2.79500e+02
980	2.82270e+02	9.80000e+02	1.14019e+01	2.80000e+02
981	2.82798e+02	9.81000e+02	1.14001e+01	2.80500e+02
982	2.83335e+02	9.82000e+02	1.13982e+01	2.81000e+02
983	2.83859e+02	9.83000e+02	1.13963e+01	2.81500e+02
984	2.84397e+02	9.84000e+02	1.13943e+01	2.82000e+02
985	2.84962e+02	9.85000e+02	1.13923e+01	2.82500e+02
986	2.85474e+02	9.86000e+02	1.13902e+01	2.83000e+02
987	2.86009e+02	9.87000e+02	1.13882e+01	2.83500e+02
988	2.86526e+02	9.88000e+02	1.13859e+01	2.84000e+02
989	2.87028e+02	9.89000e+02	1.13836e+01	2.84500e+02
990	2.87526e+02	9.90000e+02	1.13813e+01	2.85000e+02
991	2.88045e+02	9.91000e+02	1.13790e+01	2.85500e+02
992	2.88536e+02	9.92000e+02	1.13764e+01	2.86000e+02
993	2.89048e+02	9.93000e+02	1.13738e+01	2.86500e+02
994	2.89547e+02	9.94000e+02	1.13712e+01	2.87000e+02
995	2.90039e+02	9.95000e+02	1.13685e+01	2.87500e+02
996	2.90544e+02	9.96000e+02	1.13655e+01	2.88000e+02
997	2.91081e+02	9.97000e+02	1.13626e+01	2.88500e+02
998	2.91576e+02	9.98000e+02	1.13597e+01	2.89000e+02
999	2.92105e+02	9.99000e+02	1.13566e+01	2.89500e+02
1000	2.92611e+02	1.00000e+03	1.13533e+01	2.90000e+02
1001	2.93076e+02	1.00100e+03	1.13500e+01	2.90500e+02
1002	2.93596e+02	1.00200e+03	1.13466e+01	2.91000e+02
1003	2.94116e+02	1.00300e+03	1.13432e+01	2.91500e+02
1004	2.94638e+02	1.00400e+03	1.13394e+01	2.92000e+02
1005	2.95160e+02	1.00500e+03	1.13357e+01	2.92500e+02
1006	2.95666e+02	1.00600e+03	1.13319e+01	2.93000e+02
1007	2.96180e+02	1.00700e+03	1.13280e+01	2.93500e+02
1008	2.96693e+02	1.00800e+03	1.13237e+01	2.94000e+02
1009	2.97200e+02	1.00900e+03	1.13196e+01	2.94500e+02
1010	2.97724e+02	1.01000e+03	1.13153e+01	2.95000e+02
1011	2.98209e+02	1.01100e+03	1.13110e+01	2.95500e+02
1012	2.98726e+02	1.01200e+03	1.13063e+01	2.96000e+02
1013	2.99219e+02	1.01300e+03	1.13016e+01	2.96500e+02
1014	2.99709e+02	1.01400e+03	1.12969e+01	2.97000e+02
1015	3.00233e+02	1.01500e+03	1.12921e+01	2.97500e+02
1016	3.00741e+02	1.01600e+03	1.12869e+01	2.98000e+02
1017	3.01244e+02	1.01700e+03	1.12817e+01	2.98500e+02
1018	3.01735e+02	1.01800e+03	1.12765e+01	2.99000e+02
1019	3.02231e+02	1.01900e+03	1.12712e+01	2.99500e+02
1020	3.02720e+02	1.02000e+03	1.12655e+01	3.00000e+02
1021	3.03214e+02	1.02100e+03	1.12598e+01	3.00500e+02
1022	3.03720e+02	1.02200e+03	1.12541e+01	3.01000e+02
1023	3.04282e+02	1.02300e+03	1.12483e+01	3.01500e+02
1024	3.04781e+02	1.02400e+03	1.12421e+01	3.02000e+02
1025	3.05305e+02	1.02500e+03	1.12360e+01	3.02500e+02
1026	3.05815e+02	1.02600e+03	1.12299e+01	3.03000e+02
1027	3.06313e+02	1.02700e+03	1.12236e+01	3.03500e+02
1028	3.06833e+02	1.02800e+03	1.12170e+01	3.04000e+02
1029	3.07352e+02	1.02900e+03	1.12104e+01	3.04500e+02
1030	3.07863e+02	1.03000e+03	1.12038e+01	3.05000e+02
1031	3.08357e+02	1.03100e+03	1.11970e+01	3.05500e+02
1032	3.08893e+02	1.03200e+03	1.11899e+01	3.06000e+02
1033	3.09430e+02	1.03300e+03	1.11829e+01	3.06500e+02
1034	3.09939e+02	1.03400e+03	1.11758e+01	3.07000e+02
1035	3.10439e+02	1.03500e+03	1.11686e+01	3.07500e+02
1036	3.10970e+02	1.03600e+03	1.11612e+01	3.08000e+02
1037	3.11471e+02	1.03700e+03	1.11537e+01	3.08500e+02
1038	3.11987e+02	1.03800e+03	1.11463e+01	3.09000e+02
1039	3.12488e+02	1.03900e+03	1.11387e+01	3.09500e+02
1040	3.13043e+02	1.04000e+03	1.11309e+01	3.10000e+02
1041	3.13573e+02	1.04100e+03	1.11231e+01	3.10500e+02
1042	3.14090e+02	1.04200e+03	1.11153e+01	3.11000e+02
1043	3.14716e+02	1.04300e+03	1.11074e+01	3.11500e+02
1044	3.15203e+02	1.04400e+03	1.10993e+01	3.12000e+02
1045	3.15695e+02	1.04500e+03	1.10912e+01	3.12500e+02
1046	3.16203e+02	1.04600e+03	1.10831e+01	3.13000e+02
1047	3.16701e+02	1.04700e+03	1.10750e+01	3.13500e+02
1048	3.17244e+02	1.04800e+03	1.10667e+01	3.14000e+02
1049	3.17749e+02	1.04900e+03	1.10584e+01	3.14500e+02
1050	3.18234e+02	1.05000e+03	1.10501e+01	3.15000e+02
1051	3.18804e+02	1.05100e+03	1.10418e+01	3.15500e+02
1052	3.19430e+02	1.05200e+03	1.10333e+01	3.16000e+02
1053	3.19962e+02	1.05300e+03	1.10249e+01	3.16500e+02
1054	3.20510e+02	1.05400e+03	1.10164e+01	3.17000e+02
1055	3.21075e+02	1.05500e+03	1.10080e+01	3.17500e+02
1056	3.21678e+02	1.05600e+03	1.09994e+01	3.18000e+02
1057	3.22180e+02	1.05700e+03	1.09909e+01	3.18500e+02
