index	ts	t	weight	tr
[#]	[°C]	[s]	[mg]	[°C]
843	1.30788e+02	8.43000e+02	2.03854e+00	1.30500e+02
844	1.30953e+02	8.44000e+02	2.03849e+00	1.30667e+02
845	1.31124e+02	8.45000e+02	2.03843e+00	1.30833e+02
846	1.31285e+02	8.46000e+02	2.03836e+00	1.31000e+02
847	1.31455e+02	8.47000e+02	2.03828e+00	1.31167e+02
848	1.31629e+02	8.48000e+02	2.03813e+00	1.31333e+02
849	1.31796e+02	8.49000e+02	2.03802e+00	1.31500e+02
850	1.31966e+02	8.50000e+02	2.03794e+00	1.31667e+02
851	1.32137e+02	8.51000e+02	2.03788e+00	1.31833e+02
852	1.32296e+02	8.52000e+02	2.03788e+00	1.32000e+02
853	1.32471e+02	8.53000e+02	2.03789e+00	1.32167e+02
854	1.32649e+02	8.54000e+02	2.03792e+00	1.32333e+02
855	1.32808e+02	8.55000e+02	2.03796e+00	1.32500e+02
856	1.32962e+02	8.56000e+02	2.03807e+00	1.32667e+02
857	1.33148e+02	8.57000e+02	2.03814e+00	1.32833e+02
858	1.33320e+02	8.58000e+02	2.03820e+00	1.33000e+02
859	1.33487e+02	8.59000e+02	2.03825e+00	1.33167e+02
860	1.33646e+02	8.60000e+02	2.03827e+00	1.33333e+02
861	1.33812e+02	8.61000e+02	2.03828e+00	1.33500e+02
862	1.33991e+02	8.62000e+02	2.03827e+00	1.33667e+02
863	1.34168e+02	8.63000e+02	2.03825e+00	1.33833e+02
864	1.34332e+02	8.64000e+02	2.03817e+00	1.34000e+02
865	1.34505e+02	8.65000e+02	2.03810e+00	1.34167e+02
866	1.34675e+02	8.66000e+02	2.03803e+00	1.34333e+02
867	1.34836e+02	8.67000e+02	2.03796e+00	1.34500e+02
868	1.35010e+02	8.68000e+02	2.03786e+00	1.34667e+02
869	1.35168e+02	8.69000e+02	2.03779e+00	1.34833e+02
870	1.35339e+02	8.70000e+02	2.03772e+00	1.35000e+02
871	1.35515e+02	8.71000e+02	2.03767e+00	1.35167e+02
872	1.35688e+02	8.72000e+02	2.03767e+00	1.35333e+02
873	1.35859e+02	8.73000e+02	2.03766e+00	1.35500e+02
874	1.36015e+02	8.74000e+02	2.03765e+00	1.35667e+02
875	1.36193e+02	8.75000e+02	2.03764e+00	1.35833e+02
876	1.36361e+02	8.76000e+02	2.03765e+00	1.36000e+02
877	1.36521e+02	8.77000e+02	2.03762e+00	1.36167e+02
878	1.36701e+02	8.78000e+02	2.03757e+00	1.36333e+02
879	1.36864e+02	8.79000e+02	2.03753e+00	1.36500e+02
880	1.37051e+02	8.80000e+02	2.03744e+00	1.36667e+02
881	1.37204e+02	8.81000e+02	2.03740e+00	1.36833e+02
882	1.37378e+02	8.82000e+02	2.03737e+00	1.37000e+02
883	1.37540e+02	8.83000e+02	2.03734e+00	1.37167e+02
884	1.37719e+02	8.84000e+02	2.03736e+00	1.37333e+02
885	1.37893e+02	8.85000e+02	2.03735e+00	1.37500e+02
886	1.38054e+02	8.86000e+02	2.03735e+00	1.37667e+02
887	1.38221e+02	8.87000e+02	2.03734e+00	1.37833e+02
888	1.38390e+02	8.88000e+02	2.03733e+00	1.38000e+02
889	1.38557e+02	8.89000e+02	2.03732e+00	1.38167e+02
890	1.38719e+02	8.90000e+02	2.03731e+00	1.38333e+02
891	1.38884e+02	8.91000e+02	2.03729e+00	1.38500e+02
892	1.39054e+02	8.92000e+02	2.03727e+00	1.38667e+02
893	1.39234e+02	8.93000e+02	2.03726e+00	1.38833e+02
894	1.39399e+02	8.94000e+02	2.03724e+00	1.39000e+02
895	1.39573e+02	8.95000e+02	2.03723e+00	1.39167e+02
896	1.39745e+02	8.96000e+02	2.03722e+00	1.39333e+02
897	1.39911e+02	8.97000e+02	2.03720e+00	1.39500e+02
898	1.40076e+02	8.98000e+02	2.03718e+00	1.39667e+02
899	1.40248e+02	8.99000e+02	2.03716e+00	1.39833e+02
900	1.40407e+02	9.00000e+02	2.03713e+00	1.40000e+02
901	1.40580e+02	9.01000e+02	2.03710e+00	1.40167e+02
902	1.40757e+02	9.02000e+02	2.03707e+00	1.40333e+02
903	1.40922e+02	9.03000e+02	2.03703e+00	1.40500e+02
904	1.41096e+02	9.04000e+02	2.03699e+00	1.40667e+02
905	1.41259e+02	9.05000e+02	2.03696e+00	1.40833e+02
906	1.41427e+02	9.06000e+02	2.03692e+00	1.41000e+02
907	1.41591e+02	9.07000e+02	2.03689e+00	1.41167e+02
908	1.41769e+02	9.08000e+02	2.03686e+00	1.41333e+02
909	1.41939e+02	9.09000e+02	2.03683e+00	1.41500e+02
910	1.42111e+02	9.10000e+02	2.03680e+00	1.41667e+02
911	1.42269e+02	9.11000e+02	2.03676e+00	1.41833e+02
912	1.42441e+02	9.12000e+02	2.03673e+00	1.42000e+02
913	1.42611e+02	9.13000e+02	2.03670e+00	1.42167e+02
914	1.42783e+02	9.14000e+02	2.03666e+00	1.42333e+02
915	1.42952e+02	9.15000e+02	2.03662e+00	1.42500e+02
916	1.43120e+02	9.16000e+02	2.03657e+00	1.42667e+02
917	1.43295e+02	9.17000e+02	2.03651e+00	1.42833e+02
918	1.43466e+02	9.18000e+02	2.03645e+00	1.43000e+02
919	1.43627e+02	9.19000e+02	2.03638e+00	1.43167e+02
920	1.43801e+02	9.20000e+02	2.03627e+00	1.43333e+02
921	1.43964e+02	9.21000e+02	2.03617e+00	1.43500e+02
922	1.44138e+02	9.22000e+02	2.03607e+00	1.43667e+02
923	1.44313e+02	9.23000e+02	2.03597e+00	1.43833e+02
924	1.44481e+02	9.24000e+02	2.03587e+00	1.44000e+02
925	1.44641e+02	9.25000e+02	2.03579e+00	1.44167e+02
926	1.44819e+02	9.26000e+02	2.03574e+00	1.44333e+02
927	1.44977e+02	9.27000e+02	2.03570e+00	1.44500e+02
928	1.45152e+02	9.28000e+02	2.03575e+00	1.44667e+02
929	1.45319e+02	9.29000e+02	2.03578e+00	1.44833e+02
930	1.45488e+02	9.30000e+02	2.03581e+00	1.45000e+02
931	1.45663e+02	9.31000e+02	2.03584e+00	1.45167e+02
932	1.45828e+02	9.32000e+02	2.03590e+00	1.45333e+02
933	1.46012e+02	9.33000e+02	2.03591e+00	1.45500e+02
934	1.46165e+02	9.34000e+02	2.03589e+00	1.45667e+02
935	1.46336e+02	9.35000e+02	2.03587e+00	1.45833e+02
936	1.46507e+02	9.36000e+02	2.03576e+00	1.46000e+02
937	1.46675e+02	9.37000e+02	2.03568e+00	1.46167e+02
938	1.46845e+02	9.38000e+02	2.03559e+00	1.46333e+02
939	1.47017e+02	9.39000e+02	2.03550e+00	1.46500e+02
940	1.47184e+02	9.40000e+02	2.03538e+00	1.46667e+02
941	1.47357e+02	9.41000e+02	2.03529e+00	1.46833e+02
942	1.47525e+02	9.42000e+02	2.03520e+00	1.47000e+02
943	1.47695e+02	9.43000e+02	2.03512e+00	1.47167e+02
944	1.47853e+02	9.44000e+02	2.03506e+00	1.47333e+02
945	1.48033e+02	9.45000e+02	2.03499e+00	1.47500e+02
946	1.48198e+02	9.46000e+02	2.03493e+00	1.47667e+02
947	1.48368e+02	9.47000e+02	2.03487e+00	1.47833e+02
948	1.48540e+02	9.48000e+02	2.03482e+00	1.48000e+02
949	1.48709e+02	9.49000e+02	2.03476e+00	1.48167e+02
950	1.48892e+02	9.50000e+02	2.03471e+00	1.48333e+02
951	1.49044e+02	9.51000e+02	2.03466e+00	1.48500e+02
952	1.49219e+02	9.52000e+02	2.03462e+00	1.48667e+02
953	1.49388e+02	9.53000e+02	2.03458e+00	1.48833e+02
954	1.49572e+02	9.54000e+02	2.03455e+00	1.49000e+02
955	1.49727e+02	9.55000e+02	2.03451e+00	1.49167e+02
956	1.49894e+02	9.56000e+02	2.03447e+00	1.49333e+02
957	1.50081e+02	9.57000e+02	2.03441e+00	1.49500e+02
958	1.50245e+02	9.58000e+02	2.03434e+00	1.49667e+02
959	1.50404e+02	9.59000e+02	2.03427e+00	1.49833e+02
960	1.50565e+02	9.60000e+02	2.03414e+00	1.50000e+02
961	1.50740e+02	9.61000e+02	2.03403e+00	1.50167e+02
962	1.50925e+02	9.62000e+02	2.03392e+00	1.50333e+02
963	1.51088e+02	9.63000e+02	2.03381e+00	1.50500e+02
964	1.51256e+02	9.64000e+02	2.03370e+00	1.50667e+02
965	1.51428e+02	9.65000e+02	2.03360e+00	1.50833e+02
966	1.51595e+02	9.66000e+02	2.03352e+00	1.51000e+02
967	1.51771e+02	9.67000e+02	2.03345e+00	1.51167e+02
968	1.51928e+02	9.68000e+02	2.03342e+00	1.51333e+02
969	1.52104e+02	9.69000e+02	2.03338e+00	1.51500e+02
970	1.52264e+02	9.70000e+02	2.03335e+00	1.51667e+02
971	1.52446e+02	9.71000e+02	2.03331e+00	1.51833e+02
972	1.52615e+02	9.72000e+02	2.03329e+00	1.52000e+02
973	1.52782e+02	9.73000e+02	2.03325e+00	1.52167e+02
974	1.52945e+02	9.74000e+02	2.03319e+00	1.52333e+02
975	1.53123e+02	9.75000e+02	2.03313e+00	1.52500e+02
976	1.53289e+02	9.76000e+02	2.03303e+00	1.52667e+02
977	1.53469e+02	9.77000e+02	2.03293e+00	1.52833e+02
978	1.53628e+02	9.78000e+02	2.03284e+00	1.53000e+02
979	1.53794e+02	9.79000e+02	2.03275e+00	1.53167e+02
980	1.53959e+02	9.80000e+02	2.03264e+00	1.53333e+02
981	1.54137e+02	9.81000e+02	2.03255e+00	1.53500e+02
982	1.54320e+02	9.82000e+02	2.03246e+00	1.53667e+02
983	1.54476e+02	9.83000e+02	2.03238e+00	1.53833e+02
984	1.54649e+02	9.84000e+02	2.03232e+00	1.54000e+02
985	1.54815e+02	9.85000e+02	2.03225e+00	1.54167e+02
986	1.54989e+02	9.86000e+02	2.03218e+00	1.54333e+02
987	1.55146e+02	9.87000e+02	2.03211e+00	1.54500e+02
988	1.55326e+02	9.88000e+02	2.03205e+00	1.54667e+02
989	1.55488e+02	9.89000e+02	2.03199e+00	1.54833e+02
990	1.55656e+02	9.90000e+02	2.03193e+00	1.55000e+02
991	1.55830e+02	9.91000e+02	2.03188e+00	1.55167e+02
992	1.56011e+02	9.92000e+02	2.03184e+00	1.55333e+02
993	1.56166e+02	9.93000e+02	2.03179e+00	1.55500e+02
994	1.56355e+02	9.94000e+02	2.03174e+00	1.55667e+02
995	1.56516e+02	9.95000e+02	2.03168e+00	1.55833e+02
996	1.56685e+02	9.96000e+02	2.03162e+00	1.56000e+02
997	1.56844e+02	9.97000e+02	2.03155e+00	1.56167e+02
998	1.57012e+02	9.98000e+02	2.03147e+00	1.56333e+02
999	1.57188e+02	9.99000e+02	2.03138e+00	1.56500e+02
1000	1.57358e+02	1.00000e+03	2.03127e+00	1.56667e+02
1001	1.57527e+02	1.00100e+03	2.03117e+00	1.56833e+02
1002	1.57685e+02	1.00200e+03	2.03107e+00	1.57000e+02
1003	1.57849e+02	1.00300e+03	2.03098e+00	1.57167e+02
1004	1.58022e+02	1.00400e+03	2.03089e+00	1.57333e+02
1005	1.58193e+02	1.00500e+03	2.03082e+00	1.57500e+02
1006	1.58371e+02	1.00600e+03	2.03075e+00	1.57667e+02
1007	1.58541e+02	1.00700e+03	2.03068e+00	1.57833e+02
1008	1.58698e+02	1.00800e+03	2.03063e+00	1.58000e+02
1009	1.58865e+02	1.00900e+03	2.03057e+00	1.58167e+02
1010	1.59043e+02	1.01000e+03	2.03050e+00	1.58333e+02
1011	1.59201e+02	1.01100e+03	2.03043e+00	1.58500e+02
1012	1.59382e+02	1.01200e+03	2.03034e+00	1.58667e+02
1013	1.59546e+02	1.01300e+03	2.03025e+00	1.58833e+02
1014	1.59709e+02	1.01400e+03	2.03017e+00	1.59000e+02
1015	1.59879e+02	1.01500e+03	2.03008e+00	1.59167e+02
1016	1.60068e+02	1.01600e+03	2.02998e+00	1.59333e+02
1017	1.60226e+02	1.01700e+03	2.02989e+00	1.59500e+02
1018	1.60392e+02	1.01800e+03	2.02980e+00	1.59667e+02
1019	1.60566e+02	1.01900e+03	2.02972e+00	1.59833e+02
1020	1.60736e+02	1.02000e+03	2.02963e+00	1.60000e+02
1021	1.60898e+02	1.02100e+03	2.02955e+00	1.60167e+02
1022	1.61071e+02	1.02200e+03	2.02947e+00	1.60333e+02
1023	1.61251e+02	1.02300e+03	2.02939e+00	1.60500e+02
1024	1.61410e+02	1.02400e+03	2.02932e+00	1.60667e+02
1025	1.61592e+02	1.02500e+03	2.02924e+00	1.60833e+02
1026	1.61749e+02	1.02600e+03	2.02917e+00	1.61000e+02
1027	1.61917e+02	1.02700e+03	2.02910e+00	1.61167e+02
1028	1.62088e+02	1.02800e+03	2.02903e+00	1.61333e+02
1029	1.62251e+02	1.02900e+03	2.02896e+00	1.61500e+02
1030	1.62440e+02	1.03000e+03	2.02887e+00	1.61667e+02
1031	1.62599e+02	1.03100e+03	2.02878e+00	1.61833e+02
1032	1.62769e+02	1.03200e+03	2.02867e+00	1.62000e+02
1033	1.62935e+02	1.03300e+03	2.02855e+00	1.62167e+02
1034	1.63107e+02	1.03400e+03	2.02844e+00	1.62333e+02
1035	1.63256e+02	1.03500e+03	2.02831e+00	1.62500e+02
1036	1.63435e+02	1.03600e+03	2.02816e+00	1.62667e+02
1037	1.63604e+02	1.03700e+03	2.02802e+00	1.62833e+02
1038	1.63774e+02	1.03800e+03	2.02789e+00	1.63000e+02
1039	1.63942e+02	1.03900e+03	2.02775e+00	1.63167e+02
1040	1.64125e+02	1.04000e+03	2.02761e+00	1.63333e+02
1041	1.64290e+02	1.04100e+03	2.02748e+00	1.63500e+02
1042	1.64452e+02	1.04200e+03	2.02735e+00	1.63667e+02
1043	1.64614e+02	1.04300e+03	2.02723e+00	1.63833e+02
1044	1.64790e+02	1.04400e+03	2.02713e+00	1.64000e+02
1045	1.64969e+02	1.04500e+03	2.02703e+00	1.64167e+02
1046	1.65146e+02	1.04600e+03	2.02694e+00	1.64333e+02
1047	1.65308e+02	1.04700e+03	2.02684e+00	1.64500e+02
1048	1.65472e+02	1.04800e+03	2.02677e+00	1.64667e+02
1049	1.65643e+02	1.04900e+03	2.02667e+00	1.64833e+02
1050	1.65813e+02	1.05000e+03	2.02657e+00	1.65000e+02
1051	1.65990e+02	1.05100e+03	2.02646e+00	1.65167e+02
1052	1.66144e+02	1.05200e+03	2.02632e+00	1.65333e+02
1053	1.66320e+02	1.05300e+03	2.02619e+00	1.65500e+02
1054	1.66483e+02	1.05400e+03	2.02606e+00	1.65667e+02
1055	1.66664e+02	1.05500e+03	2.02592e+00	1.65833e+02
1056	1.66843e+02	1.05600e+03	2.02576e+00	1.66000e+02
1057	1.67002e+02	1.05700e+03	2.02560e+00	1.66167e+02
1058	1.67165e+02	1.05800e+03	2.02545e+00	1.66333e+02
1059	1.67332e+02	1.05900e+03	2.02530e+00	1.66500e+02
1060	1.67512e+02	1.06000e+03	2.02514e+00	1.66667e+02
1061	1.67670e+02	1.06100e+03	2.02499e+00	1.66833e+02
1062	1.67847e+02	1.06200e+03	2.02483e+00	1.67000e+02
1063	1.68017e+02	1.06300e+03	2.02467e+00	1.67167e+02
1064	1.68190e+02	1.06400e+03	2.02452e+00	1.67333e+02
1065	1.68356e+02	1.06500e+03	2.02436e+00	1.67500e+02
1066	1.68524e+02	1.06600e+03	2.02420e+00	1.67667e+02
1067	1.68680e+02	1.06700e+03	2.02404e+00	1.67833e+02
1068	1.68869e+02	1.06800e+03	2.02390e+00	1.68000e+02
1069	1.69031e+02	1.06900e+03	2.02375e+00	1.68167e+02
1070	1.69200e+02	1.07000e+03	2.02361e+00	1.68333e+02
1071	1.69368e+02	1.07100e+03	2.02348e+00	1.68500e+02
1072	1.69548e+02	1.07200e+03	2.02335e+00	1.68667e+02
1073	1.69713e+02	1.07300e+03	2.02321e+00	1.68833e+02
1074	1.69878e+02	1.07400e+03	2.02305e+00	1.69000e+02
1075	1.70049e+02	1.07500e+03	2.02289e+00	1.69167e+02
1076	1.70233e+02	1.07600e+03	2.02270e+00	1.69333e+02
1077	1.70390e+02	1.07700e+03	2.02250e+00	1.69500e+02
1078	1.70565e+02	1.07800e+03	2.02230e+00	1.69667e+02
1079	1.70736e+02	1.07900e+03	2.02208e+00	1.69833e+02
1080	1.70889e+02	1.08000e+03	2.02183e+00	1.70000e+02
1081	1.71052e+02	1.08100e+03	2.02160e+00	1.70167e+02
1082	1.71227e+02	1.08200e+03	2.02138e+00	1.70333e+02
1083	1.71406e+02	1.08300e+03	2.02115e+00	1.70500e+02
1084	1.71579e+02	1.08400e+03	2.02092e+00	1.70667e+02
1085	1.71736e+02	1.08500e+03	2.02069e+00	1.70833e+02
1086	1.71906e+02	1.08600e+03	2.02045e+00	1.71000e+02
1087	1.72093e+02	1.08700e+03	2.02021e+00	1.71167e+02
1088	1.72258e+02	1.08800e+03	2.01995e+00	1.71333e+02
1089	1.72425e+02	1.08900e+03	2.01969e+00	1.71500e+02
1090	1.72598e+02	1.09000e+03	2.01943e+00	1.71667e+02
1091	1.72766e+02	1.09100e+03	2.01916e+00	1.71833e+02
1092	1.72927e+02	1.09200e+03	2.01887e+00	1.72000e+02
1093	1.73102e+02	1.09300e+03	2.01859e+00	1.72167e+02
1094	1.73272e+02	1.09400e+03	2.01831e+00	1.72333e+02
1095	1.73430e+02	1.09500e+03	2.01803e+00	1.72500e+02
1096	1.73606e+02	1.09600e+03	2.01775e+00	1.72667e+02
1097	1.73778e+02	1.09700e+03	2.01749e+00	1.72833e+02
1098	1.73947e+02	1.09800e+03	2.01723e+00	1.73000e+02
1099	1.74119e+02	1.09900e+03	2.01698e+00	1.73167e+02
1100	1.74285e+02	1.10000e+03	2.01674e+00	1.73333e+02
1101	1.74462e+02	1.10100e+03	2.01649e+00	1.73500e+02
1102	1.74624e+02	1.10200e+03	2.01624e+00	1.73667e+02
1103	1.74794e+02	1.10300e+03	2.01597e+00	1.73833e+02
1104	1.74967e+02	1.10400e+03	2.01570e+00	1.74000e+02
1105	1.75138e+02	1.10500e+03	2.01542e+00	1.74167e+02
1106	1.75306e+02	1.10600e+03	2.01513e+00	1.74333e+02
1107	1.75474e+02	1.10700e+03	2.01485e+00	1.74500e+02
1108	1.75646e+02	1.10800e+03	2.01454e+00	1.74667e+02
1109	1.75807e+02	1.10900e+03	2.01425e+00	1.74833e+02
1110	1.75974e+02	1.11000e+03	2.01395e+00	1.75000e+02
1111	1.76152e+02	1.11100e+03	2.01366e+00	1.75167e+02
1112	1.76301e+02	1.11200e+03	2.01336e+00	1.75333e+02
1113	1.76489e+02	1.11300e+03	2.01305e+00	1.75500e+02
1114	1.76649e+02	1.11400e+03	2.01274e+00	1.75667e+02
1115	1.76825e+02	1.11500e+03	2.01242e+00	1.75833e+02
1116	1.76988e+02	1.11600e+03	2.01208e+00	1.76000e+02
1117	1.77157e+02	1.11700e+03	2.01175e+00	1.76167e+02
1118	1.77326e+02	1.11800e+03	2.01141e+00	1.76333e+02
1119	1.77499e+02	1.11900e+03	2.01107e+00	1.76500e+02
1120	1.77653e+02	1.12000e+03	2.01072e+00	1.76667e+02
1121	1.77835e+02	1.12100e+03	2.01038e+00	1.76833e+02
1122	1.78014e+02	1.12200e+03	2.01005e+00	1.77000e+02
1123	1.78179e+02	1.12300e+03	2.00972e+00	1.77167e+02
1124	1.78346e+02	1.12400e+03	2.00939e+00	1.77333e+02
1125	1.78512e+02	1.12500e+03	2.00905e+00	1.77500e+02
1126	1.78686e+02	1.12600e+03	2.00871e+00	1.77667e+02
1127	1.78847e+02	1.12700e+03	2.00836e+00	1.77833e+02
1128	1.79020e+02	1.12800e+03	2.00799e+00	1.78000e+02
1129	1.79202e+02	1.12900e+03	2.00762e+00	1.78167e+02
1130	1.79356e+02	1.13000e+03	2.00724e+00	1.78333e+02
1131	1.79523e+02	1.13100e+03	2.00687e+00	1.78500e+02
1132	1.79710e+02	1.13200e+03	2.00646e+00	1.78667e+02
1133	1.79863e+02	1.13300e+03	2.00607e+00	1.78833e+02
1134	1.80040e+02	1.13400e+03	2.00568e+00	1.79000e+02
1135	1.80215e+02	1.13500e+03	2.00528e+00	1.79167e+02
1136	1.80390e+02	1.13600e+03	2.00487e+00	1.79333e+02
1137	1.80553e+02	1.13700e+03	2.00447e+00	1.79500e+02
1138	1.80716e+02	1.13800e+03	2.00406e+00	1.79667e+02
1139	1.80896e+02	1.13900e+03	2.00366e+00	1.79833e+02
1140	1.81056e+02	1.14000e+03	2.00324e+00	1.80000e+02
1141	1.81228e+02	1.14100e+03	2.00283e+00	1.80167e+02
1142	1.81407e+02	1.14200e+03	2.00241e+00	1.80333e+02
1143	1.81571e+02	1.14300e+03	2.00199e+00	1.80500e+02
1144	1.81735e+02	1.14400e+03	2.00155e+00	1.80667e+02
1145	1.81907e+02	1.14500e+03	2.00110e+00	1.80833e+02
1146	1.82080e+02	1.14600e+03	2.00065e+00	1.81000e+02
1147	1.82256e+02	1.14700e+03	2.00020e+00	1.81167e+02
1148	1.82415e+02	1.14800e+03	1.99975e+00	1.81333e+02
1149	1.82592e+02	1.14900e+03	1.99934e+00	1.81500e+02
1150	1.82758e+02	1.15000e+03	1.99894e+00	1.81667e+02
1151	1.82934e+02	1.15100e+03	1.99857e+00	1.81833e+02
1152	1.83085e+02	1.15200e+03	1.99826e+00	1.82000e+02
1153	1.83268e+02	1.15300e+03	1.99792e+00	1.82167e+02
1154	1.83436e+02	1.15400e+03	1.99756e+00	1.82333e+02
1155	1.83615e+02	1.15500e+03	1.99719e+00	1.82500e+02
1156	1.83773e+02	1.15600e+03	1.99680e+00	1.82667e+02
1157	1.83944e+02	1.15700e+03	1.99639e+00	1.82833e+02
1158	1.84120e+02	1.15800e+03	1.99598e+00	1.83000e+02
1159	1.84282e+02	1.15900e+03	1.99557e+00	1.83167e+02
1160	1.84457e+02	1.16000e+03	1.99509e+00	1.83333e+02
1161	1.84631e+02	1.16100e+03	1.99465e+00	1.83500e+02
1162	1.84792e+02	1.16200e+03	1.99419e+00	1.83667e+02
1163	1.84966e+02	1.16300e+03	1.99374e+00	1.83833e+02
1164	1.85127e+02	1.16400e+03	1.99329e+00	1.84000e+02
1165	1.85306e+02	1.16500e+03	1.99284e+00	1.84167e+02
1166	1.85467e+02	1.16600e+03	1.99241e+00	1.84333e+02
1167	1.85634e+02	1.16700e+03	1.99199e+00	1.84500e+02
1168	1.85812e+02	1.16800e+03	1.99160e+00	1.84667e+02
1169	1.85975e+02	1.16900e+03	1.99122e+00	1.84833e+02
1170	1.86138e+02	1.17000e+03	1.99084e+00	1.85000e+02
1171	1.86315e+02	1.17100e+03	1.99048e+00	1.85167e+02
1172	1.86489e+02	1.17200e+03	1.99016e+00	1.85333e+02
1173	1.86658e+02	1.17300e+03	1.98982e+00	1.85500e+02
1174	1.86826e+02	1.17400e+03	1.98947e+00	1.85667e+02
1175	1.86989e+02	1.17500e+03	1.98913e+00	1.85833e+02
1176	1.87174e+02	1.17600e+03	1.98877e+00	1.86000e+02
1177	1.87337e+02	1.17700e+03	1.98841e+00	1.86167e+02
1178	1.87502e+02	1.17800e+03	1.98806e+00	1.86333e+02
1179	1.87675e+02	1.17900e+03	1.98770e+00	1.86500e+02
1180	1.87837e+02	1.18000e+03	1.98733e+00	1.86667e+02
1181	1.88010e+02	1.18100e+03	1.98697e+00	1.86833e+02
1182	1.88175e+02	1.18200e+03	1.98661e+00	1.87000e+02
1183	1.88353e+02	1.18300e+03	1.98626e+00	1.87167e+02
1184	1.88516e+02	1.18400e+03	1.98592e+00	1.87333e+02
1185	1.88682e+02	1.18500e+03	1.98558e+00	1.87500e+02
1186	1.88860e+02	1.18600e+03	1.98524e+00	1.87667e+02
1187	1.89036e+02	1.18700e+03	1.98491e+00	1.87833e+02
1188	1.89197e+02	1.18800e+03	1.98459e+00	1.88000e+02
1189	1.89356e+02	1.18900e+03	1.98426e+00	1.88167e+02
1190	1.89539e+02	1.19000e+03	1.98392e+00	1.88333e+02
1191	1.89694e+02	1.19100e+03	1.98357e+00	1.88500e+02
1192	1.89871e+02	1.19200e+03	1.98320e+00	1.88667e+02
1193	1.90031e+02	1.19300e+03	1.98284e+00	1.88833e+02
1194	1.90197e+02	1.19400e+03	1.98249e+00	1.89000e+02
1195	1.90380e+02	1.19500e+03	1.98216e+00	1.89167e+02
1196	1.90530e+02	1.19600e+03	1.98185e+00	1.89333e+02
1197	1.90713e+02	1.19700e+03	1.98155e+00	1.89500e+02
1198	1.90877e+02	1.19800e+03	1.98126e+00	1.89667e+02
1199	1.91048e+02	1.19900e+03	1.98098e+00	1.89833e+02
1200	1.91214e+02	1.20000e+03	1.98078e+00	1.90000e+02
1201	1.91394e+02	1.20100e+03	1.98054e+00	1.90167e+02
1202	1.91550e+02	1.20200e+03	1.98029e+00	1.90333e+02
1203	1.91720e+02	1.20300e+03	1.98003e+00	1.90500e+02
1204	1.91903e+02	1.20400e+03	1.97976e+00	1.90667e+02
1205	1.92068e+02	1.20500e+03	1.97948e+00	1.90833e+02
1206	1.92242e+02	1.20600e+03	1.97919e+00	1.91000e+02
1207	1.92415e+02	1.20700e+03	1.97889e+00	1.91167e+02
1208	1.92577e+02	1.20800e+03	1.97855e+00	1.91333e+02
1209	1.92749e+02	1.20900e+03	1.97824e+00	1.91500e+02
1210	1.92926e+02	1.21000e+03	1.97794e+00	1.91667e+02
1211	1.93090e+02	1.21100e+03	1.97764e+00	1.91833e+02
1212	1.93260e+02	1.21200e+03	1.97736e+00	1.92000e+02
1213	1.93429e+02	1.21300e+03	1.97708e+00	1.92167e+02
1214	1.93593e+02	1.21400e+03	1.97680e+00	1.92333e+02
