index	ts	t	weight	tr
[#]	[°C]	[s]	[mg]	[°C]
843	1.30318e+02	8.43000e+02	2.98309e+00	1.30500e+02
844	1.30495e+02	8.44000e+02	2.98310e+00	1.30667e+02
845	1.30656e+02	8.45000e+02	2.98310e+00	1.30833e+02
846	1.30832e+02	8.46000e+02	2.98310e+00	1.31000e+02
847	1.31006e+02	8.47000e+02	2.98309e+00	1.31167e+02
848	1.31166e+02	8.48000e+02	2.98307e+00	1.31333e+02
849	1.31320e+02	8.49000e+02	2.98305e+00	1.31500e+02
850	1.31495e+02	8.50000e+02	2.98303e+00	1.31667e+02
851	1.31675e+02	8.51000e+02	2.98302e+00	1.31833e+02
852	1.31836e+02	8.52000e+02	2.98300e+00	1.32000e+02
853	1.32005e+02	8.53000e+02	2.98299e+00	1.32167e+02
854	1.32171e+02	8.54000e+02	2.98298e+00	1.32333e+02
855	1.32351e+02	8.55000e+02	2.98297e+00	1.32500e+02
856	1.32511e+02	8.56000e+02	2.98298e+00	1.32667e+02
857	1.32678e+02	8.57000e+02	2.98298e+00	1.32833e+02
858	1.32865e+02	8.58000e+02	2.98298e+00	1.33000e+02
859	1.33017e+02	8.59000e+02	2.98298e+00	1.33167e+02
860	1.33172e+02	8.60000e+02	2.98298e+00	1.33333e+02
861	1.33342e+02	8.61000e+02	2.98297e+00	1.33500e+02
862	1.33524e+02	8.62000e+02	2.98297e+00	1.33667e+02
863	1.33701e+02	8.63000e+02	2.98296e+00	1.33833e+02
864	1.33869e+02	8.64000e+02	2.98294e+00	1.34000e+02
865	1.34015e+02	8.65000e+02	2.98291e+00	1.34167e+02
866	1.34188e+02	8.66000e+02	2.98288e+00	1.34333e+02
867	1.34363e+02	8.67000e+02	2.98286e+00	1.34500e+02
868	1.34536e+02	8.68000e+02	2.98282e+00	1.34667e+02
869	1.34713e+02	8.69000e+02	2.98278e+00	1.34833e+02
870	1.34867e+02	8.70000e+02	2.98275e+00	1.35000e+02
871	1.35035e+02	8.71000e+02	2.98273e+00	1.35167e+02
872	1.35199e+02	8.72000e+02	2.98271e+00	1.35333e+02
873	1.35371e+02	8.73000e+02	2.98269e+00	1.35500e+02
874	1.35536e+02	8.74000e+02	2.98266e+00	1.35667e+02
875	1.35711e+02	8.75000e+02	2.98264e+00	1.35833e+02
876	1.35874e+02	8.76000e+02	2.98261e+00	1.36000e+02
877	1.36050e+02	8.77000e+02	2.98258e+00	1.36167e+02
878	1.36201e+02	8.78000e+02	2.98255e+00	1.36333e+02
879	1.36386e+02	8.79000e+02	2.98252e+00	1.36500e+02
880	1.36554e+02	8.80000e+02	2.98248e+00	1.36667e+02
881	1.36711e+02	8.81000e+02	2.98246e+00	1.36833e+02
882	1.36880e+02	8.82000e+02	2.98244e+00	1.37000e+02
883	1.37060e+02	8.83000e+02	2.98242e+00	1.37167e+02
884	1.37220e+02	8.84000e+02	2.98242e+00	1.37333e+02
885	1.37382e+02	8.85000e+02	2.98242e+00	1.37500e+02
886	1.37566e+02	8.86000e+02	2.98241e+00	1.37667e+02
887	1.37731e+02	8.87000e+02	2.98241e+00	1.37833e+02
888	1.37893e+02	8.88000e+02	2.98241e+00	1.38000e+02
889	1.38068e+02	8.89000e+02	2.98240e+00	1.38167e+02
890	1.38238e+02	8.90000e+02	2.98240e+00	1.38333e+02
891	1.38392e+02	8.91000e+02	2.98239e+00	1.38500e+02
892	1.38570e+02	8.92000e+02	2.98239e+00	1.38667e+02
893	1.38748e+02	8.93000e+02	2.98238e+00	1.38833e+02
894	1.38909e+02	8.94000e+02	2.98238e+00	1.39000e+02
895	1.39075e+02	8.95000e+02	2.98238e+00	1.39167e+02
896	1.39246e+02	8.96000e+02	2.98238e+00	1.39333e+02
897	1.39420e+02	8.97000e+02	2.98238e+00	1.39500e+02
898	1.39586e+02	8.98000e+02	2.98238e+00	1.39667e+02
899	1.39749e+02	8.99000e+02	2.98238e+00	1.39833e+02
900	1.39919e+02	9.00000e+02	2.98238e+00	1.40000e+02
901	1.40090e+02	9.01000e+02	2.98237e+00	1.40167e+02
902	1.40255e+02	9.02000e+02	2.98236e+00	1.40333e+02
903	1.40429e+02	9.03000e+02	2.98235e+00	1.40500e+02
904	1.40599e+02	9.04000e+02	2.98232e+00	1.40667e+02
905	1.40764e+02	9.05000e+02	2.98230e+00	1.40833e+02
906	1.40931e+02	9.06000e+02	2.98228e+00	1.41000e+02
907	1.41106e+02	9.07000e+02	2.98226e+00	1.41167e+02
908	1.41264e+02	9.08000e+02	2.98224e+00	1.41333e+02
909	1.41442e+02	9.09000e+02	2.98222e+00	1.41500e+02
910	1.41603e+02	9.10000e+02	2.98221e+00	1.41667e+02
911	1.41769e+02	9.11000e+02	2.98220e+00	1.41833e+02
912	1.41926e+02	9.12000e+02	2.98220e+00	1.42000e+02
913	1.42109e+02	9.13000e+02	2.98220e+00	1.42167e+02
914	1.42283e+02	9.14000e+02	2.98220e+00	1.42333e+02
915	1.42435e+02	9.15000e+02	2.98220e+00	1.42500e+02
916	1.42620e+02	9.16000e+02	2.98221e+00	1.42667e+02
917	1.42780e+02	9.17000e+02	2.98219e+00	1.42833e+02
918	1.42949e+02	9.18000e+02	2.98217e+00	1.43000e+02
919	1.43124e+02	9.19000e+02	2.98215e+00	1.43167e+02
920	1.43285e+02	9.20000e+02	2.98208e+00	1.43333e+02
921	1.43471e+02	9.21000e+02	2.98201e+00	1.43500e+02
922	1.43639e+02	9.22000e+02	2.98194e+00	1.43667e+02
923	1.43798e+02	9.23000e+02	2.98188e+00	1.43833e+02
924	1.43970e+02	9.24000e+02	2.98180e+00	1.44000e+02
925	1.44129e+02	9.25000e+02	2.98176e+00	1.44167e+02
926	1.44295e+02	9.26000e+02	2.98174e+00	1.44333e+02
927	1.44465e+02	9.27000e+02	2.98174e+00	1.44500e+02
928	1.44630e+02	9.28000e+02	2.98183e+00	1.44667e+02
929	1.44800e+02	9.29000e+02	2.98191e+00	1.44833e+02
930	1.44976e+02	9.30000e+02	2.98199e+00	1.45000e+02
931	1.45150e+02	9.31000e+02	2.98207e+00	1.45167e+02
932	1.45317e+02	9.32000e+02	2.98218e+00	1.45333e+02
933	1.45481e+02	9.33000e+02	2.98223e+00	1.45500e+02
934	1.45658e+02	9.34000e+02	2.98227e+00	1.45667e+02
935	1.45820e+02	9.35000e+02	2.98228e+00	1.45833e+02
936	1.45989e+02	9.36000e+02	2.98221e+00	1.46000e+02
937	1.46155e+02	9.37000e+02	2.98216e+00	1.46167e+02
938	1.46326e+02	9.38000e+02	2.98211e+00	1.46333e+02
939	1.46483e+02	9.39000e+02	2.98205e+00	1.46500e+02
940	1.46666e+02	9.40000e+02	2.98196e+00	1.46667e+02
941	1.46822e+02	9.41000e+02	2.98190e+00	1.46833e+02
942	1.46989e+02	9.42000e+02	2.98184e+00	1.47000e+02
943	1.47166e+02	9.43000e+02	2.98179e+00	1.47167e+02
944	1.47327e+02	9.44000e+02	2.98176e+00	1.47333e+02
945	1.47514e+02	9.45000e+02	2.98173e+00	1.47500e+02
946	1.47665e+02	9.46000e+02	2.98170e+00	1.47667e+02
947	1.47839e+02	9.47000e+02	2.98167e+00	1.47833e+02
948	1.48023e+02	9.48000e+02	2.98165e+00	1.48000e+02
949	1.48182e+02	9.49000e+02	2.98163e+00	1.48167e+02
950	1.48339e+02	9.50000e+02	2.98160e+00	1.48333e+02
951	1.48527e+02	9.51000e+02	2.98158e+00	1.48500e+02
952	1.48687e+02	9.52000e+02	2.98156e+00	1.48667e+02
953	1.48850e+02	9.53000e+02	2.98154e+00	1.48833e+02
954	1.49030e+02	9.54000e+02	2.98153e+00	1.49000e+02
955	1.49195e+02	9.55000e+02	2.98152e+00	1.49167e+02
956	1.49364e+02	9.56000e+02	2.98151e+00	1.49333e+02
957	1.49541e+02	9.57000e+02	2.98150e+00	1.49500e+02
958	1.49702e+02	9.58000e+02	2.98147e+00	1.49667e+02
959	1.49877e+02	9.59000e+02	2.98144e+00	1.49833e+02
960	1.50038e+02	9.60000e+02	2.98139e+00	1.50000e+02
961	1.50205e+02	9.61000e+02	2.98133e+00	1.50167e+02
962	1.50368e+02	9.62000e+02	2.98128e+00	1.50333e+02
963	1.50545e+02	9.63000e+02	2.98121e+00	1.50500e+02
964	1.50708e+02	9.64000e+02	2.98114e+00	1.50667e+02
965	1.50894e+02	9.65000e+02	2.98109e+00	1.50833e+02
966	1.51032e+02	9.66000e+02	2.98105e+00	1.51000e+02
967	1.51219e+02	9.67000e+02	2.98102e+00	1.51167e+02
968	1.51376e+02	9.68000e+02	2.98103e+00	1.51333e+02
969	1.51540e+02	9.69000e+02	2.98103e+00	1.51500e+02
970	1.51724e+02	9.70000e+02	2.98102e+00	1.51667e+02
971	1.51883e+02	9.71000e+02	2.98101e+00	1.51833e+02
972	1.52062e+02	9.72000e+02	2.98102e+00	1.52000e+02
973	1.52227e+02	9.73000e+02	2.98102e+00	1.52167e+02
974	1.52397e+02	9.74000e+02	2.98101e+00	1.52333e+02
975	1.52562e+02	9.75000e+02	2.98100e+00	1.52500e+02
976	1.52738e+02	9.76000e+02	2.98098e+00	1.52667e+02
977	1.52904e+02	9.77000e+02	2.98095e+00	1.52833e+02
978	1.53061e+02	9.78000e+02	2.98093e+00	1.53000e+02
979	1.53231e+02	9.79000e+02	2.98090e+00	1.53167e+02
980	1.53412e+02	9.80000e+02	2.98085e+00	1.53333e+02
981	1.53567e+02	9.81000e+02	2.98081e+00	1.53500e+02
982	1.53742e+02	9.82000e+02	2.98077e+00	1.53667e+02
983	1.53903e+02	9.83000e+02	2.98074e+00	1.53833e+02
984	1.54083e+02	9.84000e+02	2.98070e+00	1.54000e+02
985	1.54256e+02	9.85000e+02	2.98067e+00	1.54167e+02
986	1.54422e+02	9.86000e+02	2.98065e+00	1.54333e+02
987	1.54587e+02	9.87000e+02	2.98062e+00	1.54500e+02
988	1.54758e+02	9.88000e+02	2.98061e+00	1.54667e+02
989	1.54934e+02	9.89000e+02	2.98060e+00	1.54833e+02
990	1.55092e+02	9.90000e+02	2.98059e+00	1.55000e+02
991	1.55269e+02	9.91000e+02	2.98058e+00	1.55167e+02
992	1.55434e+02	9.92000e+02	2.98058e+00	1.55333e+02
993	1.55608e+02	9.93000e+02	2.98058e+00	1.55500e+02
994	1.55778e+02	9.94000e+02	2.98058e+00	1.55667e+02
995	1.55941e+02	9.95000e+02	2.98058e+00	1.55833e+02
996	1.56116e+02	9.96000e+02	2.98058e+00	1.56000e+02
997	1.56278e+02	9.97000e+02	2.98056e+00	1.56167e+02
998	1.56448e+02	9.98000e+02	2.98054e+00	1.56333e+02
999	1.56624e+02	9.99000e+02	2.98051e+00	1.56500e+02
1000	1.56790e+02	1.00000e+03	2.98046e+00	1.56667e+02
1001	1.56957e+02	1.00100e+03	2.98043e+00	1.56833e+02
1002	1.57122e+02	1.00200e+03	2.98039e+00	1.57000e+02
1003	1.57301e+02	1.00300e+03	2.98037e+00	1.57167e+02
1004	1.57463e+02	1.00400e+03	2.98035e+00	1.57333e+02
1005	1.57647e+02	1.00500e+03	2.98033e+00	1.57500e+02
1006	1.57817e+02	1.00600e+03	2.98032e+00	1.57667e+02
1007	1.57980e+02	1.00700e+03	2.98031e+00	1.57833e+02
1008	1.58142e+02	1.00800e+03	2.98031e+00	1.58000e+02
1009	1.58322e+02	1.00900e+03	2.98030e+00	1.58167e+02
1010	1.58488e+02	1.01000e+03	2.98028e+00	1.58333e+02
1011	1.58664e+02	1.01100e+03	2.98026e+00	1.58500e+02
1012	1.58817e+02	1.01200e+03	2.98021e+00	1.58667e+02
1013	1.58998e+02	1.01300e+03	2.98017e+00	1.58833e+02
1014	1.59167e+02	1.01400e+03	2.98013e+00	1.59000e+02
1015	1.59342e+02	1.01500e+03	2.98009e+00	1.59167e+02
1016	1.59498e+02	1.01600e+03	2.98006e+00	1.59333e+02
1017	1.59670e+02	1.01700e+03	2.98004e+00	1.59500e+02
1018	1.59833e+02	1.01800e+03	2.98002e+00	1.59667e+02
1019	1.60003e+02	1.01900e+03	2.98001e+00	1.59833e+02
1020	1.60173e+02	1.02000e+03	2.98003e+00	1.60000e+02
1021	1.60342e+02	1.02100e+03	2.98004e+00	1.60167e+02
1022	1.60523e+02	1.02200e+03	2.98005e+00	1.60333e+02
1023	1.60695e+02	1.02300e+03	2.98006e+00	1.60500e+02
1024	1.60848e+02	1.02400e+03	2.98007e+00	1.60667e+02
1025	1.61025e+02	1.02500e+03	2.98008e+00	1.60833e+02
1026	1.61188e+02	1.02600e+03	2.98008e+00	1.61000e+02
1027	1.61373e+02	1.02700e+03	2.98009e+00	1.61167e+02
1028	1.61543e+02	1.02800e+03	2.98008e+00	1.61333e+02
1029	1.61710e+02	1.02900e+03	2.98006e+00	1.61500e+02
1030	1.61880e+02	1.03000e+03	2.98005e+00	1.61667e+02
1031	1.62033e+02	1.03100e+03	2.98002e+00	1.61833e+02
1032	1.62209e+02	1.03200e+03	2.97997e+00	1.62000e+02
1033	1.62385e+02	1.03300e+03	2.97993e+00	1.62167e+02
1034	1.62561e+02	1.03400e+03	2.97987e+00	1.62333e+02
1035	1.62732e+02	1.03500e+03	2.97981e+00	1.62500e+02
1036	1.62891e+02	1.03600e+03	2.97973e+00	1.62667e+02
1037	1.63068e+02	1.03700e+03	2.97966e+00	1.62833e+02
1038	1.63226e+02	1.03800e+03	2.97960e+00	1.63000e+02
1039	1.63417e+02	1.03900e+03	2.97955e+00	1.63167e+02
1040	1.63572e+02	1.04000e+03	2.97951e+00	1.63333e+02
1041	1.63744e+02	1.04100e+03	2.97948e+00	1.63500e+02
1042	1.63915e+02	1.04200e+03	2.97946e+00	1.63667e+02
1043	1.64082e+02	1.04300e+03	2.97944e+00	1.63833e+02
1044	1.64262e+02	1.04400e+03	2.97944e+00	1.64000e+02
1045	1.64425e+02	1.04500e+03	2.97944e+00	1.64167e+02
1046	1.64600e+02	1.04600e+03	2.97943e+00	1.64333e+02
1047	1.64772e+02	1.04700e+03	2.97942e+00	1.64500e+02
1048	1.64926e+02	1.04800e+03	2.97941e+00	1.64667e+02
1049	1.65092e+02	1.04900e+03	2.97939e+00	1.64833e+02
1050	1.65264e+02	1.05000e+03	2.97937e+00	1.65000e+02
1051	1.65441e+02	1.05100e+03	2.97935e+00	1.65167e+02
1052	1.65602e+02	1.05200e+03	2.97932e+00	1.65333e+02
1053	1.65773e+02	1.05300e+03	2.97929e+00	1.65500e+02
1054	1.65950e+02	1.05400e+03	2.97926e+00	1.65667e+02
1055	1.66110e+02	1.05500e+03	2.97923e+00	1.65833e+02
1056	1.66293e+02	1.05600e+03	2.97919e+00	1.66000e+02
1057	1.66464e+02	1.05700e+03	2.97916e+00	1.66167e+02
1058	1.66635e+02	1.05800e+03	2.97913e+00	1.66333e+02
1059	1.66799e+02	1.05900e+03	2.97910e+00	1.66500e+02
1060	1.66970e+02	1.06000e+03	2.97906e+00	1.66667e+02
1061	1.67136e+02	1.06100e+03	2.97903e+00	1.66833e+02
1062	1.67310e+02	1.06200e+03	2.97899e+00	1.67000e+02
1063	1.67472e+02	1.06300e+03	2.97895e+00	1.67167e+02
1064	1.67649e+02	1.06400e+03	2.97892e+00	1.67333e+02
1065	1.67808e+02	1.06500e+03	2.97889e+00	1.67500e+02
1066	1.67983e+02	1.06600e+03	2.97886e+00	1.67667e+02
1067	1.68152e+02	1.06700e+03	2.97884e+00	1.67833e+02
1068	1.68334e+02	1.06800e+03	2.97885e+00	1.68000e+02
1069	1.68481e+02	1.06900e+03	2.97884e+00	1.68167e+02
1070	1.68668e+02	1.07000e+03	2.97884e+00	1.68333e+02
1071	1.68836e+02	1.07100e+03	2.97884e+00	1.68500e+02
1072	1.69011e+02	1.07200e+03	2.97886e+00	1.68667e+02
1073	1.69184e+02	1.07300e+03	2.97886e+00	1.68833e+02
1074	1.69341e+02	1.07400e+03	2.97886e+00	1.69000e+02
1075	1.69522e+02	1.07500e+03	2.97885e+00	1.69167e+02
1076	1.69677e+02	1.07600e+03	2.97883e+00	1.69333e+02
1077	1.69836e+02	1.07700e+03	2.97880e+00	1.69500e+02
1078	1.70013e+02	1.07800e+03	2.97877e+00	1.69667e+02
1079	1.70182e+02	1.07900e+03	2.97873e+00	1.69833e+02
1080	1.70352e+02	1.08000e+03	2.97867e+00	1.70000e+02
1081	1.70520e+02	1.08100e+03	2.97861e+00	1.70167e+02
1082	1.70695e+02	1.08200e+03	2.97857e+00	1.70333e+02
1083	1.70864e+02	1.08300e+03	2.97852e+00	1.70500e+02
1084	1.71032e+02	1.08400e+03	2.97846e+00	1.70667e+02
1085	1.71204e+02	1.08500e+03	2.97841e+00	1.70833e+02
1086	1.71364e+02	1.08600e+03	2.97836e+00	1.71000e+02
1087	1.71536e+02	1.08700e+03	2.97831e+00	1.71167e+02
1088	1.71703e+02	1.08800e+03	2.97826e+00	1.71333e+02
1089	1.71888e+02	1.08900e+03	2.97820e+00	1.71500e+02
1090	1.72050e+02	1.09000e+03	2.97815e+00	1.71667e+02
1091	1.72222e+02	1.09100e+03	2.97809e+00	1.71833e+02
1092	1.72382e+02	1.09200e+03	2.97803e+00	1.72000e+02
1093	1.72551e+02	1.09300e+03	2.97798e+00	1.72167e+02
1094	1.72716e+02	1.09400e+03	2.97793e+00	1.72333e+02
1095	1.72885e+02	1.09500e+03	2.97788e+00	1.72500e+02
1096	1.73067e+02	1.09600e+03	2.97784e+00	1.72667e+02
1097	1.73229e+02	1.09700e+03	2.97782e+00	1.72833e+02
1098	1.73394e+02	1.09800e+03	2.97780e+00	1.73000e+02
1099	1.73562e+02	1.09900e+03	2.97778e+00	1.73167e+02
1100	1.73742e+02	1.10000e+03	2.97778e+00	1.73333e+02
1101	1.73915e+02	1.10100e+03	2.97778e+00	1.73500e+02
1102	1.74073e+02	1.10200e+03	2.97776e+00	1.73667e+02
1103	1.74252e+02	1.10300e+03	2.97774e+00	1.73833e+02
1104	1.74413e+02	1.10400e+03	2.97771e+00	1.74000e+02
1105	1.74577e+02	1.10500e+03	2.97767e+00	1.74167e+02
1106	1.74742e+02	1.10600e+03	2.97763e+00	1.74333e+02
1107	1.74911e+02	1.10700e+03	2.97759e+00	1.74500e+02
1108	1.75076e+02	1.10800e+03	2.97752e+00	1.74667e+02
1109	1.75253e+02	1.10900e+03	2.97746e+00	1.74833e+02
1110	1.75431e+02	1.11000e+03	2.97740e+00	1.75000e+02
1111	1.75597e+02	1.11100e+03	2.97734e+00	1.75167e+02
1112	1.75755e+02	1.11200e+03	2.97727e+00	1.75333e+02
1113	1.75928e+02	1.11300e+03	2.97721e+00	1.75500e+02
1114	1.76105e+02	1.11400e+03	2.97715e+00	1.75667e+02
1115	1.76275e+02	1.11500e+03	2.97709e+00	1.75833e+02
1116	1.76445e+02	1.11600e+03	2.97703e+00	1.76000e+02
1117	1.76605e+02	1.11700e+03	2.97697e+00	1.76167e+02
1118	1.76787e+02	1.11800e+03	2.97692e+00	1.76333e+02
1119	1.76949e+02	1.11900e+03	2.97686e+00	1.76500e+02
1120	1.77116e+02	1.12000e+03	2.97682e+00	1.76667e+02
1121	1.77275e+02	1.12100e+03	2.97677e+00	1.76833e+02
1122	1.77455e+02	1.12200e+03	2.97673e+00	1.77000e+02
1123	1.77624e+02	1.12300e+03	2.97670e+00	1.77167e+02
1124	1.77787e+02	1.12400e+03	2.97668e+00	1.77333e+02
1125	1.77966e+02	1.12500e+03	2.97664e+00	1.77500e+02
1126	1.78138e+02	1.12600e+03	2.97661e+00	1.77667e+02
1127	1.78309e+02	1.12700e+03	2.97657e+00	1.77833e+02
1128	1.78468e+02	1.12800e+03	2.97651e+00	1.78000e+02
1129	1.78649e+02	1.12900e+03	2.97645e+00	1.78167e+02
1130	1.78808e+02	1.13000e+03	2.97639e+00	1.78333e+02
1131	1.78975e+02	1.13100e+03	2.97633e+00	1.78500e+02
1132	1.79154e+02	1.13200e+03	2.97625e+00	1.78667e+02
1133	1.79318e+02	1.13300e+03	2.97618e+00	1.78833e+02
1134	1.79489e+02	1.13400e+03	2.97612e+00	1.79000e+02
1135	1.79649e+02	1.13500e+03	2.97605e+00	1.79167e+02
1136	1.79826e+02	1.13600e+03	2.97599e+00	1.79333e+02
1137	1.79998e+02	1.13700e+03	2.97592e+00	1.79500e+02
1138	1.80163e+02	1.13800e+03	2.97584e+00	1.79667e+02
1139	1.80335e+02	1.13900e+03	2.97576e+00	1.79833e+02
1140	1.80505e+02	1.14000e+03	2.97566e+00	1.80000e+02
1141	1.80675e+02	1.14100e+03	2.97556e+00	1.80167e+02
1142	1.80842e+02	1.14200e+03	2.97547e+00	1.80333e+02
1143	1.81012e+02	1.14300e+03	2.97537e+00	1.80500e+02
1144	1.81174e+02	1.14400e+03	2.97527e+00	1.80667e+02
1145	1.81359e+02	1.14500e+03	2.97518e+00	1.80833e+02
1146	1.81517e+02	1.14600e+03	2.97509e+00	1.81000e+02
1147	1.81685e+02	1.14700e+03	2.97500e+00	1.81167e+02
1148	1.81855e+02	1.14800e+03	2.97491e+00	1.81333e+02
1149	1.82024e+02	1.14900e+03	2.97483e+00	1.81500e+02
1150	1.82204e+02	1.15000e+03	2.97473e+00	1.81667e+02
1151	1.82367e+02	1.15100e+03	2.97464e+00	1.81833e+02
1152	1.82528e+02	1.15200e+03	2.97453e+00	1.82000e+02
1153	1.82690e+02	1.15300e+03	2.97442e+00	1.82167e+02
1154	1.82877e+02	1.15400e+03	2.97432e+00	1.82333e+02
1155	1.83049e+02	1.15500e+03	2.97421e+00	1.82500e+02
1156	1.83203e+02	1.15600e+03	2.97409e+00	1.82667e+02
1157	1.83373e+02	1.15700e+03	2.97399e+00	1.82833e+02
1158	1.83553e+02	1.15800e+03	2.97388e+00	1.83000e+02
1159	1.83717e+02	1.15900e+03	2.97379e+00	1.83167e+02
1160	1.83897e+02	1.16000e+03	2.97370e+00	1.83333e+02
1161	1.84052e+02	1.16100e+03	2.97361e+00	1.83500e+02
1162	1.84212e+02	1.16200e+03	2.97353e+00	1.83667e+02
1163	1.84385e+02	1.16300e+03	2.97344e+00	1.83833e+02
1164	1.84566e+02	1.16400e+03	2.97337e+00	1.84000e+02
1165	1.84719e+02	1.16500e+03	2.97329e+00	1.84167e+02
1166	1.84894e+02	1.16600e+03	2.97320e+00	1.84333e+02
1167	1.85064e+02	1.16700e+03	2.97312e+00	1.84500e+02
1168	1.85223e+02	1.16800e+03	2.97302e+00	1.84667e+02
1169	1.85399e+02	1.16900e+03	2.97292e+00	1.84833e+02
1170	1.85571e+02	1.17000e+03	2.97282e+00	1.85000e+02
1171	1.85743e+02	1.17100e+03	2.97271e+00	1.85167e+02
1172	1.85907e+02	1.17200e+03	2.97260e+00	1.85333e+02
1173	1.86076e+02	1.17300e+03	2.97249e+00	1.85500e+02
1174	1.86244e+02	1.17400e+03	2.97238e+00	1.85667e+02
1175	1.86402e+02	1.17500e+03	2.97228e+00	1.85833e+02
1176	1.86577e+02	1.17600e+03	2.97218e+00	1.86000e+02
1177	1.86739e+02	1.17700e+03	2.97208e+00	1.86167e+02
1178	1.86906e+02	1.17800e+03	2.97199e+00	1.86333e+02
1179	1.87080e+02	1.17900e+03	2.97189e+00	1.86500e+02
1180	1.87249e+02	1.18000e+03	2.97180e+00	1.86667e+02
1181	1.87417e+02	1.18100e+03	2.97171e+00	1.86833e+02
1182	1.87588e+02	1.18200e+03	2.97161e+00	1.87000e+02
1183	1.87749e+02	1.18300e+03	2.97152e+00	1.87167e+02
1184	1.87922e+02	1.18400e+03	2.97141e+00	1.87333e+02
1185	1.88104e+02	1.18500e+03	2.97131e+00	1.87500e+02
1186	1.88263e+02	1.18600e+03	2.97120e+00	1.87667e+02
1187	1.88426e+02	1.18700e+03	2.97109e+00	1.87833e+02
1188	1.88586e+02	1.18800e+03	2.97096e+00	1.88000e+02
1189	1.88757e+02	1.18900e+03	2.97084e+00	1.88167e+02
1190	1.88927e+02	1.19000e+03	2.97072e+00	1.88333e+02
1191	1.89096e+02	1.19100e+03	2.97060e+00	1.88500e+02
1192	1.89262e+02	1.19200e+03	2.97049e+00	1.88667e+02
1193	1.89438e+02	1.19300e+03	2.97037e+00	1.88833e+02
1194	1.89601e+02	1.19400e+03	2.97026e+00	1.89000e+02
1195	1.89772e+02	1.19500e+03	2.97014e+00	1.89167e+02
1196	1.89931e+02	1.19600e+03	2.97004e+00	1.89333e+02
1197	1.90113e+02	1.19700e+03	2.96993e+00	1.89500e+02
1198	1.90267e+02	1.19800e+03	2.96982e+00	1.89667e+02
1199	1.90434e+02	1.19900e+03	2.96972e+00	1.89833e+02
1200	1.90592e+02	1.20000e+03	2.96962e+00	1.90000e+02
1201	1.90768e+02	1.20100e+03	2.96952e+00	1.90167e+02
1202	1.90940e+02	1.20200e+03	2.96942e+00	1.90333e+02
1203	1.91098e+02	1.20300e+03	2.96933e+00	1.90500e+02
1204	1.91266e+02	1.20400e+03	2.96924e+00	1.90667e+02
1205	1.91450e+02	1.20500e+03	2.96915e+00	1.90833e+02
1206	1.91602e+02	1.20600e+03	2.96905e+00	1.91000e+02
1207	1.91777e+02	1.20700e+03	2.96895e+00	1.91167e+02
1208	1.91940e+02	1.20800e+03	2.96883e+00	1.91333e+02
1209	1.92108e+02	1.20900e+03	2.96869e+00	1.91500e+02
1210	1.92273e+02	1.21000e+03	2.96855e+00	1.91667e+02
1211	1.92445e+02	1.21100e+03	2.96839e+00	1.91833e+02
1212	1.92616e+02	1.21200e+03	2.96820e+00	1.92000e+02
1213	1.92774e+02	1.21300e+03	2.96802e+00	1.92167e+02
1214	1.92953e+02	1.21400e+03	2.96785e+00	1.92333e+02
