index	ts	t	weight	tr
[#]	[°C]	[s]	[mg]	[°C]
723	1.31023e+02	7.23000e+02	2.03323e+00	1.31000e+02
724	1.31357e+02	7.24000e+02	2.03321e+00	1.31333e+02
725	1.31685e+02	7.25000e+02	2.03319e+00	1.31667e+02
726	1.32025e+02	7.26000e+02	2.03317e+00	1.32000e+02
727	1.32369e+02	7.27000e+02	2.03315e+00	1.32333e+02
728	1.32706e+02	7.28000e+02	2.03313e+00	1.32667e+02
729	1.33051e+02	7.29000e+02	2.03311e+00	1.33000e+02
730	1.33371e+02	7.30000e+02	2.03308e+00	1.33333e+02
731	1.33720e+02	7.31000e+02	2.03305e+00	1.33667e+02
732	1.34030e+02	7.32000e+02	2.03302e+00	1.34000e+02
733	1.34374e+02	7.33000e+02	2.03298e+00	1.34333e+02
734	1.34713e+02	7.34000e+02	2.03295e+00	1.34667e+02
735	1.35050e+02	7.35000e+02	2.03291e+00	1.35000e+02
736	1.35369e+02	7.36000e+02	2.03287e+00	1.35333e+02
737	1.35721e+02	7.37000e+02	2.03283e+00	1.35667e+02
738	1.36054e+02	7.38000e+02	2.03279e+00	1.36000e+02
739	1.36389e+02	7.39000e+02	2.03275e+00	1.36333e+02
740	1.36726e+02	7.40000e+02	2.03272e+00	1.36667e+02
741	1.37052e+02	7.41000e+02	2.03268e+00	1.37000e+02
742	1.37400e+02	7.42000e+02	2.03264e+00	1.37333e+02
743	1.37733e+02	7.43000e+02	2.03260e+00	1.37667e+02
744	1.38064e+02	7.44000e+02	2.03255e+00	1.38000e+02
745	1.38402e+02	7.45000e+02	2.03250e+00	1.38333e+02
746	1.38740e+02	7.46000e+02	2.03245e+00	1.38667e+02
747	1.39088e+02	7.47000e+02	2.03240e+00	1.39000e+02
748	1.39412e+02	7.48000e+02	2.03234e+00	1.39333e+02
749	1.39753e+02	7.49000e+02	2.03228e+00	1.39667e+02
750	1.40089e+02	7.50000e+02	2.03222e+00	1.40000e+02
751	1.40428e+02	7.51000e+02	2.03217e+00	1.40333e+02
752	1.40750e+02	7.52000e+02	2.03210e+00	1.40667e+02
753	1.41087e+02	7.53000e+02	2.03204e+00	1.41000e+02
754	1.41431e+02	7.54000e+02	2.03199e+00	1.41333e+02
755	1.41767e+02	7.55000e+02	2.03193e+00	1.41667e+02
756	1.42112e+02	7.56000e+02	2.03188e+00	1.42000e+02
757	1.42448e+02	7.57000e+02	2.03183e+00	1.42333e+02
758	1.42775e+02	7.58000e+02	2.03179e+00	1.42667e+02
759	1.43122e+02	7.59000e+02	2.03175e+00	1.43000e+02
760	1.43446e+02	7.60000e+02	2.03173e+00	1.43333e+02
761	1.43788e+02	7.61000e+02	2.03170e+00	1.43667e+02
762	1.44125e+02	7.62000e+02	2.03166e+00	1.44000e+02
763	1.44454e+02	7.63000e+02	2.03162e+00	1.44333e+02
764	1.44799e+02	7.64000e+02	2.03156e+00	1.44667e+02
765	1.45128e+02	7.65000e+02	2.03151e+00	1.45000e+02
766	1.45463e+02	7.66000e+02	2.03145e+00	1.45333e+02
767	1.45803e+02	7.67000e+02	2.03139e+00	1.45667e+02
768	1.46131e+02	7.68000e+02	2.03132e+00	1.46000e+02
769	1.46468e+02	7.69000e+02	2.03125e+00	1.46333e+02
770	1.46808e+02	7.70000e+02	2.03118e+00	1.46667e+02
771	1.47151e+02	7.71000e+02	2.03111e+00	1.47000e+02
772	1.47488e+02	7.72000e+02	2.03103e+00	1.47333e+02
773	1.47825e+02	7.73000e+02	2.03095e+00	1.47667e+02
774	1.48163e+02	7.74000e+02	2.03087e+00	1.48000e+02
775	1.48503e+02	7.75000e+02	2.03079e+00	1.48333e+02
776	1.48827e+02	7.76000e+02	2.03069e+00	1.48667e+02
777	1.49166e+02	7.77000e+02	2.03060e+00	1.49000e+02
778	1.49503e+02	7.78000e+02	2.03050e+00	1.49333e+02
779	1.49827e+02	7.79000e+02	2.03040e+00	1.49667e+02
780	1.50169e+02	7.80000e+02	2.03029e+00	1.50000e+02
781	1.50516e+02	7.81000e+02	2.03018e+00	1.50333e+02
782	1.50845e+02	7.82000e+02	2.03006e+00	1.50667e+02
783	1.51189e+02	7.83000e+02	2.02995e+00	1.51000e+02
784	1.51520e+02	7.84000e+02	2.02982e+00	1.51333e+02
785	1.51864e+02	7.85000e+02	2.02970e+00	1.51667e+02
786	1.52187e+02	7.86000e+02	2.02958e+00	1.52000e+02
787	1.52522e+02	7.87000e+02	2.02946e+00	1.52333e+02
788	1.52867e+02	7.88000e+02	2.02933e+00	1.52667e+02
789	1.53209e+02	7.89000e+02	2.02920e+00	1.53000e+02
790	1.53545e+02	7.90000e+02	2.02907e+00	1.53333e+02
791	1.53875e+02	7.91000e+02	2.02894e+00	1.53667e+02
792	1.54213e+02	7.92000e+02	2.02882e+00	1.54000e+02
793	1.54556e+02	7.93000e+02	2.02869e+00	1.54333e+02
794	1.54900e+02	7.94000e+02	2.02857e+00	1.54667e+02
795	1.55229e+02	7.95000e+02	2.02845e+00	1.55000e+02
796	1.55577e+02	7.96000e+02	2.02835e+00	1.55333e+02
797	1.55909e+02	7.97000e+02	2.02824e+00	1.55667e+02
798	1.56250e+02	7.98000e+02	2.02813e+00	1.56000e+02
799	1.56570e+02	7.99000e+02	2.02802e+00	1.56333e+02
800	1.56915e+02	8.00000e+02	2.02792e+00	1.56667e+02
801	1.57252e+02	8.01000e+02	2.02780e+00	1.57000e+02
802	1.57592e+02	8.02000e+02	2.02768e+00	1.57333e+02
803	1.57936e+02	8.03000e+02	2.02756e+00	1.57667e+02
804	1.58269e+02	8.04000e+02	2.02743e+00	1.58000e+02
805	1.58605e+02	8.05000e+02	2.02731e+00	1.58333e+02
806	1.58941e+02	8.06000e+02	2.02718e+00	1.58667e+02
807	1.59272e+02	8.07000e+02	2.02705e+00	1.59000e+02
808	1.59608e+02	8.08000e+02	2.02691e+00	1.59333e+02
809	1.59955e+02	8.09000e+02	2.02677e+00	1.59667e+02
810	1.60280e+02	8.10000e+02	2.02664e+00	1.60000e+02
811	1.60624e+02	8.11000e+02	2.02650e+00	1.60333e+02
812	1.60975e+02	8.12000e+02	2.02636e+00	1.60667e+02
813	1.61296e+02	8.13000e+02	2.02621e+00	1.61000e+02
814	1.61640e+02	8.14000e+02	2.02607e+00	1.61333e+02
815	1.61975e+02	8.15000e+02	2.02593e+00	1.61667e+02
816	1.62317e+02	8.16000e+02	2.02579e+00	1.62000e+02
817	1.62655e+02	8.17000e+02	2.02564e+00	1.62333e+02
818	1.63000e+02	8.18000e+02	2.02549e+00	1.62667e+02
819	1.63332e+02	8.19000e+02	2.02535e+00	1.63000e+02
820	1.63664e+02	8.20000e+02	2.02519e+00	1.63333e+02
821	1.64007e+02	8.21000e+02	2.02503e+00	1.63667e+02
822	1.64338e+02	8.22000e+02	2.02487e+00	1.64000e+02
823	1.64682e+02	8.23000e+02	2.02471e+00	1.64333e+02
824	1.65017e+02	8.24000e+02	2.02454e+00	1.64667e+02
825	1.65361e+02	8.25000e+02	2.02438e+00	1.65000e+02
826	1.65697e+02	8.26000e+02	2.02422e+00	1.65333e+02
827	1.66032e+02	8.27000e+02	2.02406e+00	1.65667e+02
828	1.66374e+02	8.28000e+02	2.02390e+00	1.66000e+02
829	1.66714e+02	8.29000e+02	2.02374e+00	1.66333e+02
830	1.67052e+02	8.30000e+02	2.02357e+00	1.66667e+02
831	1.67382e+02	8.31000e+02	2.02339e+00	1.67000e+02
832	1.67722e+02	8.32000e+02	2.02320e+00	1.67333e+02
833	1.68060e+02	8.33000e+02	2.02301e+00	1.67667e+02
834	1.68402e+02	8.34000e+02	2.02281e+00	1.68000e+02
835	1.68739e+02	8.35000e+02	2.02262e+00	1.68333e+02
836	1.69082e+02	8.36000e+02	2.02240e+00	1.68667e+02
837	1.69410e+02	8.37000e+02	2.02218e+00	1.69000e+02
838	1.69752e+02	8.38000e+02	2.02196e+00	1.69333e+02
839	1.70091e+02	8.39000e+02	2.02173e+00	1.69667e+02
840	1.70426e+02	8.40000e+02	2.02149e+00	1.70000e+02
841	1.70769e+02	8.41000e+02	2.02126e+00	1.70333e+02
842	1.71106e+02	8.42000e+02	2.02101e+00	1.70667e+02
843	1.71437e+02	8.43000e+02	2.02076e+00	1.71000e+02
844	1.71783e+02	8.44000e+02	2.02049e+00	1.71333e+02
845	1.72115e+02	8.45000e+02	2.02021e+00	1.71667e+02
846	1.72454e+02	8.46000e+02	2.01993e+00	1.72000e+02
847	1.72785e+02	8.47000e+02	2.01964e+00	1.72333e+02
848	1.73129e+02	8.48000e+02	2.01930e+00	1.72667e+02
849	1.73467e+02	8.49000e+02	2.01897e+00	1.73000e+02
850	1.73818e+02	8.50000e+02	2.01864e+00	1.73333e+02
851	1.74160e+02	8.51000e+02	2.01830e+00	1.73667e+02
852	1.74483e+02	8.52000e+02	2.01792e+00	1.74000e+02
853	1.74827e+02	8.53000e+02	2.01755e+00	1.74333e+02
854	1.75164e+02	8.54000e+02	2.01717e+00	1.74667e+02
855	1.75515e+02	8.55000e+02	2.01678e+00	1.75000e+02
856	1.75848e+02	8.56000e+02	2.01636e+00	1.75333e+02
857	1.76187e+02	8.57000e+02	2.01594e+00	1.75667e+02
858	1.76525e+02	8.58000e+02	2.01552e+00	1.76000e+02
859	1.76861e+02	8.59000e+02	2.01508e+00	1.76333e+02
860	1.77193e+02	8.60000e+02	2.01461e+00	1.76667e+02
861	1.77538e+02	8.61000e+02	2.01414e+00	1.77000e+02
862	1.77879e+02	8.62000e+02	2.01366e+00	1.77333e+02
863	1.78221e+02	8.63000e+02	2.01318e+00	1.77667e+02
864	1.78560e+02	8.64000e+02	2.01265e+00	1.78000e+02
865	1.78890e+02	8.65000e+02	2.01213e+00	1.78333e+02
866	1.79246e+02	8.66000e+02	2.01159e+00	1.78667e+02
867	1.79573e+02	8.67000e+02	2.01105e+00	1.79000e+02
868	1.79920e+02	8.68000e+02	2.01047e+00	1.79333e+02
869	1.80268e+02	8.69000e+02	2.00990e+00	1.79667e+02
870	1.80593e+02	8.70000e+02	2.00931e+00	1.80000e+02
871	1.80927e+02	8.71000e+02	2.00872e+00	1.80333e+02
872	1.81276e+02	8.72000e+02	2.00809e+00	1.80667e+02
873	1.81620e+02	8.73000e+02	2.00747e+00	1.81000e+02
874	1.81961e+02	8.74000e+02	2.00684e+00	1.81333e+02
875	1.82271e+02	8.75000e+02	2.00621e+00	1.81667e+02
876	1.82627e+02	8.76000e+02	2.00555e+00	1.82000e+02
877	1.82969e+02	8.77000e+02	2.00489e+00	1.82333e+02
878	1.83321e+02	8.78000e+02	2.00423e+00	1.82667e+02
879	1.83656e+02	8.79000e+02	2.00356e+00	1.83000e+02
880	1.84000e+02	8.80000e+02	2.00286e+00	1.83333e+02
881	1.84338e+02	8.81000e+02	2.00216e+00	1.83667e+02
882	1.84683e+02	8.82000e+02	2.00146e+00	1.84000e+02
883	1.85014e+02	8.83000e+02	2.00074e+00	1.84333e+02
884	1.85354e+02	8.84000e+02	1.99999e+00	1.84667e+02
885	1.85697e+02	8.85000e+02	1.99925e+00	1.85000e+02
886	1.86029e+02	8.86000e+02	1.99850e+00	1.85333e+02
887	1.86373e+02	8.87000e+02	1.99774e+00	1.85667e+02
888	1.86722e+02	8.88000e+02	1.99694e+00	1.86000e+02
889	1.87058e+02	8.89000e+02	1.99614e+00	1.86333e+02
890	1.87398e+02	8.90000e+02	1.99535e+00	1.86667e+02
891	1.87742e+02	8.91000e+02	1.99455e+00	1.87000e+02
892	1.88083e+02	8.92000e+02	1.99372e+00	1.87333e+02
893	1.88415e+02	8.93000e+02	1.99289e+00	1.87667e+02
894	1.88762e+02	8.94000e+02	1.99207e+00	1.88000e+02
895	1.89101e+02	8.95000e+02	1.99124e+00	1.88333e+02
896	1.89442e+02	8.96000e+02	1.99042e+00	1.88667e+02
897	1.89776e+02	8.97000e+02	1.98959e+00	1.89000e+02
898	1.90116e+02	8.98000e+02	1.98877e+00	1.89333e+02
899	1.90439e+02	8.99000e+02	1.98795e+00	1.89667e+02
900	1.90790e+02	9.00000e+02	1.98714e+00	1.90000e+02
901	1.91127e+02	9.01000e+02	1.98633e+00	1.90333e+02
902	1.91468e+02	9.02000e+02	1.98552e+00	1.90667e+02
903	1.91817e+02	9.03000e+02	1.98471e+00	1.91000e+02
904	1.92146e+02	9.04000e+02	1.98390e+00	1.91333e+02
905	1.92489e+02	9.05000e+02	1.98310e+00	1.91667e+02
906	1.92829e+02	9.06000e+02	1.98230e+00	1.92000e+02
907	1.93157e+02	9.07000e+02	1.98150e+00	1.92333e+02
908	1.93493e+02	9.08000e+02	1.98071e+00	1.92667e+02
909	1.93838e+02	9.09000e+02	1.97992e+00	1.93000e+02
910	1.94193e+02	9.10000e+02	1.97913e+00	1.93333e+02
911	1.94516e+02	9.11000e+02	1.97835e+00	1.93667e+02
912	1.94850e+02	9.12000e+02	1.97758e+00	1.94000e+02
913	1.95198e+02	9.13000e+02	1.97682e+00	1.94333e+02
914	1.95545e+02	9.14000e+02	1.97606e+00	1.94667e+02
915	1.95865e+02	9.15000e+02	1.97531e+00	1.95000e+02
916	1.96207e+02	9.16000e+02	1.97460e+00	1.95333e+02
917	1.96546e+02	9.17000e+02	1.97388e+00	1.95667e+02
918	1.96891e+02	9.18000e+02	1.97316e+00	1.96000e+02
919	1.97209e+02	9.19000e+02	1.97246e+00	1.96333e+02
920	1.97566e+02	9.20000e+02	1.97179e+00	1.96667e+02
921	1.97891e+02	9.21000e+02	1.97112e+00	1.97000e+02
922	1.98212e+02	9.22000e+02	1.97046e+00	1.97333e+02
923	1.98565e+02	9.23000e+02	1.96981e+00	1.97667e+02
924	1.98898e+02	9.24000e+02	1.96920e+00	1.98000e+02
925	1.99244e+02	9.25000e+02	1.96859e+00	1.98333e+02
926	1.99561e+02	9.26000e+02	1.96798e+00	1.98667e+02
927	1.99904e+02	9.27000e+02	1.96739e+00	1.99000e+02
928	2.00241e+02	9.28000e+02	1.96684e+00	1.99333e+02
929	2.00570e+02	9.29000e+02	1.96629e+00	1.99667e+02
930	2.00919e+02	9.30000e+02	1.96575e+00	2.00000e+02
931	2.01248e+02	9.31000e+02	1.96522e+00	2.00333e+02
932	2.01574e+02	9.32000e+02	1.96475e+00	2.00667e+02
933	2.01904e+02	9.33000e+02	1.96426e+00	2.01000e+02
934	2.02245e+02	9.34000e+02	1.96378e+00	2.01333e+02
935	2.02575e+02	9.35000e+02	1.96332e+00	2.01667e+02
936	2.02920e+02	9.36000e+02	1.96289e+00	2.02000e+02
937	2.03246e+02	9.37000e+02	1.96246e+00	2.02333e+02
938	2.03592e+02	9.38000e+02	1.96204e+00	2.02667e+02
939	2.03936e+02	9.39000e+02	1.96162e+00	2.03000e+02
940	2.04265e+02	9.40000e+02	1.96125e+00	2.03333e+02
941	2.04607e+02	9.41000e+02	1.96087e+00	2.03667e+02
942	2.04943e+02	9.42000e+02	1.96050e+00	2.04000e+02
943	2.05284e+02	9.43000e+02	1.96014e+00	2.04333e+02
944	2.05618e+02	9.44000e+02	1.95982e+00	2.04667e+02
945	2.05953e+02	9.45000e+02	1.95949e+00	2.05000e+02
946	2.06290e+02	9.46000e+02	1.95917e+00	2.05333e+02
947	2.06632e+02	9.47000e+02	1.95885e+00	2.05667e+02
948	2.06957e+02	9.48000e+02	1.95857e+00	2.06000e+02
949	2.07304e+02	9.49000e+02	1.95828e+00	2.06333e+02
950	2.07637e+02	9.50000e+02	1.95800e+00	2.06667e+02
951	2.07981e+02	9.51000e+02	1.95773e+00	2.07000e+02
952	2.08315e+02	9.52000e+02	1.95749e+00	2.07333e+02
953	2.08659e+02	9.53000e+02	1.95724e+00	2.07667e+02
954	2.08984e+02	9.54000e+02	1.95699e+00	2.08000e+02
955	2.09337e+02	9.55000e+02	1.95675e+00	2.08333e+02
956	2.09672e+02	9.56000e+02	1.95653e+00	2.08667e+02
957	2.10011e+02	9.57000e+02	1.95631e+00	2.09000e+02
958	2.10336e+02	9.58000e+02	1.95609e+00	2.09333e+02
959	2.10691e+02	9.59000e+02	1.95587e+00	2.09667e+02
960	2.11029e+02	9.60000e+02	1.95567e+00	2.10000e+02
961	2.11365e+02	9.61000e+02	1.95546e+00	2.10333e+02
962	2.11703e+02	9.62000e+02	1.95526e+00	2.10667e+02
963	2.12039e+02	9.63000e+02	1.95505e+00	2.11000e+02
964	2.12369e+02	9.64000e+02	1.95487e+00	2.11333e+02
965	2.12714e+02	9.65000e+02	1.95468e+00	2.11667e+02
966	2.13049e+02	9.66000e+02	1.95449e+00	2.12000e+02
967	2.13391e+02	9.67000e+02	1.95431e+00	2.12333e+02
968	2.13730e+02	9.68000e+02	1.95414e+00	2.12667e+02
969	2.14070e+02	9.69000e+02	1.95397e+00	2.13000e+02
970	2.14404e+02	9.70000e+02	1.95380e+00	2.13333e+02
971	2.14749e+02	9.71000e+02	1.95364e+00	2.13667e+02
972	2.15087e+02	9.72000e+02	1.95350e+00	2.14000e+02
973	2.15417e+02	9.73000e+02	1.95334e+00	2.14333e+02
974	2.15749e+02	9.74000e+02	1.95319e+00	2.14667e+02
975	2.16100e+02	9.75000e+02	1.95304e+00	2.15000e+02
976	2.16424e+02	9.76000e+02	1.95289e+00	2.15333e+02
977	2.16769e+02	9.77000e+02	1.95274e+00	2.15667e+02
978	2.17104e+02	9.78000e+02	1.95258e+00	2.16000e+02
979	2.17449e+02	9.79000e+02	1.95242e+00	2.16333e+02
980	2.17789e+02	9.80000e+02	1.95225e+00	2.16667e+02
981	2.18125e+02	9.81000e+02	1.95209e+00	2.17000e+02
982	2.18470e+02	9.82000e+02	1.95192e+00	2.17333e+02
983	2.18801e+02	9.83000e+02	1.95176e+00	2.17667e+02
984	2.19146e+02	9.84000e+02	1.95159e+00	2.18000e+02
985	2.19474e+02	9.85000e+02	1.95142e+00	2.18333e+02
986	2.19824e+02	9.86000e+02	1.95125e+00	2.18667e+02
987	2.20161e+02	9.87000e+02	1.95109e+00	2.19000e+02
988	2.20500e+02	9.88000e+02	1.95092e+00	2.19333e+02
989	2.20834e+02	9.89000e+02	1.95076e+00	2.19667e+02
990	2.21172e+02	9.90000e+02	1.95060e+00	2.20000e+02
991	2.21506e+02	9.91000e+02	1.95045e+00	2.20333e+02
992	2.21842e+02	9.92000e+02	1.95030e+00	2.20667e+02
993	2.22193e+02	9.93000e+02	1.95016e+00	2.21000e+02
994	2.22538e+02	9.94000e+02	1.95001e+00	2.21333e+02
995	2.22867e+02	9.95000e+02	1.94987e+00	2.21667e+02
996	2.23201e+02	9.96000e+02	1.94973e+00	2.22000e+02
997	2.23555e+02	9.97000e+02	1.94958e+00	2.22333e+02
998	2.23889e+02	9.98000e+02	1.94942e+00	2.22667e+02
999	2.24213e+02	9.99000e+02	1.94926e+00	2.23000e+02
1000	2.24549e+02	1.00000e+03	1.94908e+00	2.23333e+02
1001	2.24905e+02	1.00100e+03	1.94891e+00	2.23667e+02
1002	2.25248e+02	1.00200e+03	1.94872e+00	2.24000e+02
1003	2.25588e+02	1.00300e+03	1.94853e+00	2.24333e+02
1004	2.25915e+02	1.00400e+03	1.94832e+00	2.24667e+02
1005	2.26274e+02	1.00500e+03	1.94810e+00	2.25000e+02
1006	2.26612e+02	1.00600e+03	1.94789e+00	2.25333e+02
1007	2.26947e+02	1.00700e+03	1.94767e+00	2.25667e+02
1008	2.27284e+02	1.00800e+03	1.94743e+00	2.26000e+02
1009	2.27618e+02	1.00900e+03	1.94721e+00	2.26333e+02
1010	2.27964e+02	1.01000e+03	1.94700e+00	2.26667e+02
1011	2.28303e+02	1.01100e+03	1.94680e+00	2.27000e+02
1012	2.28634e+02	1.01200e+03	1.94663e+00	2.27333e+02
1013	2.28980e+02	1.01300e+03	1.94645e+00	2.27667e+02
1014	2.29335e+02	1.01400e+03	1.94628e+00	2.28000e+02
1015	2.29663e+02	1.01500e+03	1.94612e+00	2.28333e+02
1016	2.30011e+02	1.01600e+03	1.94598e+00	2.28667e+02
1017	2.30352e+02	1.01700e+03	1.94583e+00	2.29000e+02
1018	2.30693e+02	1.01800e+03	1.94568e+00	2.29333e+02
1019	2.31043e+02	1.01900e+03	1.94553e+00	2.29667e+02
1020	2.31377e+02	1.02000e+03	1.94539e+00	2.30000e+02
1021	2.31722e+02	1.02100e+03	1.94525e+00	2.30333e+02
1022	2.32062e+02	1.02200e+03	1.94511e+00	2.30667e+02
1023	2.32398e+02	1.02300e+03	1.94497e+00	2.31000e+02
1024	2.32736e+02	1.02400e+03	1.94483e+00	2.31333e+02
1025	2.33073e+02	1.02500e+03	1.94469e+00	2.31667e+02
1026	2.33415e+02	1.02600e+03	1.94455e+00	2.32000e+02
1027	2.33760e+02	1.02700e+03	1.94441e+00	2.32333e+02
1028	2.34096e+02	1.02800e+03	1.94427e+00	2.32667e+02
1029	2.34443e+02	1.02900e+03	1.94413e+00	2.33000e+02
1030	2.34790e+02	1.03000e+03	1.94399e+00	2.33333e+02
1031	2.35142e+02	1.03100e+03	1.94385e+00	2.33667e+02
1032	2.35477e+02	1.03200e+03	1.94370e+00	2.34000e+02
1033	2.35824e+02	1.03300e+03	1.94356e+00	2.34333e+02
1034	2.36165e+02	1.03400e+03	1.94342e+00	2.34667e+02
1035	2.36506e+02	1.03500e+03	1.94328e+00	2.35000e+02
1036	2.36836e+02	1.03600e+03	1.94315e+00	2.35333e+02
1037	2.37185e+02	1.03700e+03	1.94302e+00	2.35667e+02
1038	2.37532e+02	1.03800e+03	1.94290e+00	2.36000e+02
1039	2.37860e+02	1.03900e+03	1.94277e+00	2.36333e+02
1040	2.38204e+02	1.04000e+03	1.94266e+00	2.36667e+02
1041	2.38540e+02	1.04100e+03	1.94255e+00	2.37000e+02
1042	2.38894e+02	1.04200e+03	1.94243e+00	2.37333e+02
1043	2.39224e+02	1.04300e+03	1.94232e+00	2.37667e+02
1044	2.39568e+02	1.04400e+03	1.94221e+00	2.38000e+02
1045	2.39919e+02	1.04500e+03	1.94210e+00	2.38333e+02
1046	2.40255e+02	1.04600e+03	1.94199e+00	2.38667e+02
1047	2.40600e+02	1.04700e+03	1.94187e+00	2.39000e+02
1048	2.40954e+02	1.04800e+03	1.94176e+00	2.39333e+02
1049	2.41293e+02	1.04900e+03	1.94165e+00	2.39667e+02
1050	2.41624e+02	1.05000e+03	1.94154e+00	2.40000e+02
1051	2.41979e+02	1.05100e+03	1.94143e+00	2.40333e+02
1052	2.42325e+02	1.05200e+03	1.94133e+00	2.40667e+02
1053	2.42656e+02	1.05300e+03	1.94124e+00	2.41000e+02
1054	2.43002e+02	1.05400e+03	1.94114e+00	2.41333e+02
1055	2.43349e+02	1.05500e+03	1.94104e+00	2.41667e+02
1056	2.43686e+02	1.05600e+03	1.94096e+00	2.42000e+02
1057	2.44030e+02	1.05700e+03	1.94087e+00	2.42333e+02
1058	2.44372e+02	1.05800e+03	1.94078e+00	2.42667e+02
1059	2.44712e+02	1.05900e+03	1.94068e+00	2.43000e+02
1060	2.45058e+02	1.06000e+03	1.94058e+00	2.43333e+02
1061	2.45406e+02	1.06100e+03	1.94048e+00	2.43667e+02
1062	2.45760e+02	1.06200e+03	1.94038e+00	2.44000e+02
1063	2.46099e+02	1.06300e+03	1.94028e+00	2.44333e+02
1064	2.46440e+02	1.06400e+03	1.94018e+00	2.44667e+02
1065	2.46776e+02	1.06500e+03	1.94009e+00	2.45000e+02
1066	2.47104e+02	1.06600e+03	1.94000e+00	2.45333e+02
1067	2.47445e+02	1.06700e+03	1.93991e+00	2.45667e+02
1068	2.47787e+02	1.06800e+03	1.93984e+00	2.46000e+02
1069	2.48135e+02	1.06900e+03	1.93977e+00	2.46333e+02
1070	2.48463e+02	1.07000e+03	1.93969e+00	2.46667e+02
1071	2.48799e+02	1.07100e+03	1.93962e+00	2.47000e+02
1072	2.49138e+02	1.07200e+03	1.93955e+00	2.47333e+02
1073	2.49477e+02	1.07300e+03	1.93947e+00	2.47667e+02
1074	2.49816e+02	1.07400e+03	1.93940e+00	2.48000e+02
1075	2.50158e+02	1.07500e+03	1.93933e+00	2.48333e+02
1076	2.50500e+02	1.07600e+03	1.93925e+00	2.48667e+02
1077	2.50830e+02	1.07700e+03	1.93918e+00	2.49000e+02
1078	2.51166e+02	1.07800e+03	1.93911e+00	2.49333e+02
1079	2.51510e+02	1.07900e+03	1.93903e+00	2.49667e+02
1080	2.51861e+02	1.08000e+03	1.93896e+00	2.50000e+02
1081	2.52208e+02	1.08100e+03	1.93888e+00	2.50333e+02
1082	2.52522e+02	1.08200e+03	1.93879e+00	2.50667e+02
1083	2.52864e+02	1.08300e+03	1.93870e+00	2.51000e+02
1084	2.53211e+02	1.08400e+03	1.93859e+00	2.51333e+02
1085	2.53547e+02	1.08500e+03	1.93849e+00	2.51667e+02
1086	2.53886e+02	1.08600e+03	1.93838e+00	2.52000e+02
1087	2.54219e+02	1.08700e+03	1.93827e+00	2.52333e+02
1088	2.54563e+02	1.08800e+03	1.93814e+00	2.52667e+02
1089	2.54910e+02	1.08900e+03	1.93803e+00	2.53000e+02
1090	2.55251e+02	1.09000e+03	1.93792e+00	2.53333e+02
1091	2.55590e+02	1.09100e+03	1.93781e+00	2.53667e+02
1092	2.55927e+02	1.09200e+03	1.93771e+00	2.54000e+02
1093	2.56273e+02	1.09300e+03	1.93761e+00	2.54333e+02
1094	2.56622e+02	1.09400e+03	1.93752e+00	2.54667e+02
1095	2.56969e+02	1.09500e+03	1.93742e+00	2.55000e+02
1096	2.57294e+02	1.09600e+03	1.93733e+00	2.55333e+02
