Index	Ts	t	Weight	Tr
[#]	[°C]	[s]	[mg]	[°C]
682	1.30241e+02	6.82000e+02	2.96644	131.0
683	1.30751e+02	6.83000e+02	2.96642	131.5
684	1.31242e+02	6.84000e+02	2.96638	132.0
685	1.31748e+02	6.85000e+02	2.96634	132.5
686	1.32237e+02	6.86000e+02	2.96632	133.0
687	1.32733e+02	6.87000e+02	2.96629	133.5
688	1.33246e+02	6.88000e+02	2.96628	134.0
689	1.33754e+02	6.89000e+02	2.96628	134.5
690	1.34244e+02	6.90000e+02	2.96628	135.0
691	1.34752e+02	6.91000e+02	2.96628	135.5
692	1.35245e+02	6.92000e+02	2.96631	136.0
693	1.35749e+02	6.93000e+02	2.96632	136.5
694	1.36248e+02	6.94000e+02	2.96634	137.0
695	1.36747e+02	6.95000e+02	2.96635	137.5
696	1.37249e+02	6.96000e+02	2.96636	138.0
697	1.37754e+02	6.97000e+02	2.96636	138.5
698	1.38266e+02	6.98000e+02	2.96636	139.0
699	1.38756e+02	6.99000e+02	2.96635	139.5
700	1.39263e+02	7.00000e+02	2.96632	140.0
701	1.39778e+02	7.01000e+02	2.96629	140.5
702	1.40264e+02	7.02000e+02	2.96626	141.0
703	1.40772e+02	7.03000e+02	2.96622	141.5
704	1.41276e+02	7.04000e+02	2.96617	142.0
705	1.41788e+02	7.05000e+02	2.96613	142.5
706	1.42288e+02	7.06000e+02	2.96608	143.0
707	1.42784e+02	7.07000e+02	2.96604	143.5
708	1.43284e+02	7.08000e+02	2.966	144.0
709	1.43782e+02	7.09000e+02	2.96596	144.5
710	1.44283e+02	7.10000e+02	2.96593	145.0
711	1.44790e+02	7.11000e+02	2.96589	145.5
712	1.45296e+02	7.12000e+02	2.96586	146.0
713	1.45786e+02	7.13000e+02	2.96583	146.5
714	1.46306e+02	7.14000e+02	2.9658	147.0
715	1.46805e+02	7.15000e+02	2.96577	147.5
716	1.47304e+02	7.16000e+02	2.96574	148.0
717	1.47802e+02	7.17000e+02	2.96571	148.5
718	1.48314e+02	7.18000e+02	2.96568	149.0
719	1.48803e+02	7.19000e+02	2.96566	149.5
720	1.49319e+02	7.20000e+02	2.96563	150.0
721	1.49826e+02	7.21000e+02	2.96562	150.5
722	1.50319e+02	7.22000e+02	2.96561	151.0
723	1.50820e+02	7.23000e+02	2.96561	151.5
724	1.51325e+02	7.24000e+02	2.96562	152.0
725	1.51834e+02	7.25000e+02	2.96561	152.5
726	1.52328e+02	7.26000e+02	2.96559	153.0
727	1.52828e+02	7.27000e+02	2.96557	153.5
728	1.53338e+02	7.28000e+02	2.96552	154.0
729	1.53849e+02	7.29000e+02	2.96548	154.5
730	1.54355e+02	7.30000e+02	2.96544	155.0
731	1.54852e+02	7.31000e+02	2.9654	155.5
732	1.55360e+02	7.32000e+02	2.96534	156.0
733	1.55865e+02	7.33000e+02	2.96529	156.5
734	1.56369e+02	7.34000e+02	2.96523	157.0
735	1.56873e+02	7.35000e+02	2.96517	157.5
736	1.57371e+02	7.36000e+02	2.96511	158.0
737	1.57879e+02	7.37000e+02	2.96506	158.5
738	1.58375e+02	7.38000e+02	2.96502	159.0
739	1.58891e+02	7.39000e+02	2.96497	159.5
740	1.59392e+02	7.40000e+02	2.96494	160.0
741	1.59893e+02	7.41000e+02	2.96489	160.5
742	1.60389e+02	7.42000e+02	2.96485	161.0
743	1.60901e+02	7.43000e+02	2.96481	161.5
744	1.61412e+02	7.44000e+02	2.96477	162.0
745	1.61907e+02	7.45000e+02	2.96474	162.5
746	1.62414e+02	7.46000e+02	2.96471	163.0
747	1.62921e+02	7.47000e+02	2.96469	163.5
748	1.63425e+02	7.48000e+02	2.96468	164.0
749	1.63927e+02	7.49000e+02	2.96466	164.5
750	1.64431e+02	7.50000e+02	2.96463	165.0
751	1.64935e+02	7.51000e+02	2.9646	165.5
752	1.65443e+02	7.52000e+02	2.96456	166.0
753	1.65950e+02	7.53000e+02	2.96452	166.5
754	1.66450e+02	7.54000e+02	2.96449	167.0
755	1.66956e+02	7.55000e+02	2.96445	167.5
756	1.67466e+02	7.56000e+02	2.96441	168.0
757	1.67972e+02	7.57000e+02	2.96436	168.5
758	1.68475e+02	7.58000e+02	2.9643	169.0
759	1.68977e+02	7.59000e+02	2.96423	169.5
760	1.69491e+02	7.60000e+02	2.96413	170.0
761	1.69988e+02	7.61000e+02	2.96404	170.5
762	1.70498e+02	7.62000e+02	2.96396	171.0
763	1.70995e+02	7.63000e+02	2.96388	171.5
764	1.71507e+02	7.64000e+02	2.9638	172.0
765	1.72016e+02	7.65000e+02	2.96373	172.5
766	1.72514e+02	7.66000e+02	2.96367	173.0
767	1.73006e+02	7.67000e+02	2.96362	173.5
768	1.73516e+02	7.68000e+02	2.9636	174.0
769	1.74011e+02	7.69000e+02	2.96357	174.5
770	1.74528e+02	7.70000e+02	2.96354	175.0
771	1.75030e+02	7.71000e+02	2.96351	175.5
772	1.75537e+02	7.72000e+02	2.96349	176.0
773	1.76048e+02	7.73000e+02	2.96345	176.5
774	1.76553e+02	7.74000e+02	2.96341	177.0
775	1.77060e+02	7.75000e+02	2.96335	177.5
776	1.77565e+02	7.76000e+02	2.96327	178.0
777	1.78069e+02	7.77000e+02	2.96319	178.5
778	1.78582e+02	7.78000e+02	2.96311	179.0
779	1.79083e+02	7.79000e+02	2.96302	179.5
780	1.79590e+02	7.80000e+02	2.96292	180.0
781	1.80094e+02	7.81000e+02	2.96282	180.5
782	1.80601e+02	7.82000e+02	2.96273	181.0
783	1.81121e+02	7.83000e+02	2.96263	181.5
784	1.81629e+02	7.84000e+02	2.96253	182.0
785	1.82127e+02	7.85000e+02	2.96243	182.5
786	1.82642e+02	7.86000e+02	2.96232	183.0
787	1.83152e+02	7.87000e+02	2.96221	183.5
788	1.83642e+02	7.88000e+02	2.9621	184.0
789	1.84151e+02	7.89000e+02	2.96199	184.5
790	1.84669e+02	7.90000e+02	2.96189	185.0
791	1.85170e+02	7.91000e+02	2.96177	185.5
792	1.85668e+02	7.92000e+02	2.96166	186.0
793	1.86166e+02	7.93000e+02	2.96154	186.5
794	1.86691e+02	7.94000e+02	2.96141	187.0
795	1.87196e+02	7.95000e+02	2.96128	187.5
796	1.87714e+02	7.96000e+02	2.96114	188.0
797	1.88210e+02	7.97000e+02	2.961	188.5
798	1.88720e+02	7.98000e+02	2.96086	189.0
799	1.89222e+02	7.99000e+02	2.96071	189.5
800	1.89729e+02	8.00000e+02	2.96055	190.0
801	1.90247e+02	8.01000e+02	2.96038	190.5
802	1.90750e+02	8.02000e+02	2.96021	191.0
803	1.91261e+02	8.03000e+02	2.96005	191.5
804	1.91762e+02	8.04000e+02	2.95986	192.0
805	1.92271e+02	8.05000e+02	2.95969	192.5
806	1.92777e+02	8.06000e+02	2.95952	193.0
807	1.93286e+02	8.07000e+02	2.95934	193.5
808	1.93785e+02	8.08000e+02	2.95917	194.0
809	1.94282e+02	8.09000e+02	2.95899	194.5
810	1.94795e+02	8.10000e+02	2.95879	195.0
811	1.95302e+02	8.11000e+02	2.95859	195.5
812	1.95822e+02	8.12000e+02	2.95835	196.0
813	1.96328e+02	8.13000e+02	2.95813	196.5
814	1.96828e+02	8.14000e+02	2.95791	197.0
815	1.97334e+02	8.15000e+02	2.95768	197.5
816	1.97843e+02	8.16000e+02	2.95743	198.0
817	1.98352e+02	8.17000e+02	2.95718	198.5
818	1.98851e+02	8.18000e+02	2.95694	199.0
819	1.99366e+02	8.19000e+02	2.95669	199.5
820	1.99874e+02	8.20000e+02	2.95644	200.0
821	2.00384e+02	8.21000e+02	2.95619	200.5
822	2.00885e+02	8.22000e+02	2.95593	201.0
823	2.01406e+02	8.23000e+02	2.95568	201.5
824	2.01918e+02	8.24000e+02	2.95541	202.0
825	2.02409e+02	8.25000e+02	2.95512	202.5
826	2.02927e+02	8.26000e+02	2.95482	203.0
827	2.03430e+02	8.27000e+02	2.95451	203.5
828	2.03936e+02	8.28000e+02	2.95416	204.0
829	2.04441e+02	8.29000e+02	2.95383	204.5
830	2.04961e+02	8.30000e+02	2.95351	205.0
831	2.05470e+02	8.31000e+02	2.95318	205.5
832	2.05974e+02	8.32000e+02	2.95285	206.0
833	2.06468e+02	8.33000e+02	2.95252	206.5
834	2.06978e+02	8.34000e+02	2.95218	207.0
835	2.07492e+02	8.35000e+02	2.95185	207.5
836	2.07994e+02	8.36000e+02	2.95151	208.0
837	2.08499e+02	8.37000e+02	2.95117	208.5
838	2.09011e+02	8.38000e+02	2.95083	209.0
839	2.09511e+02	8.39000e+02	2.95049	209.5
840	2.10026e+02	8.40000e+02	2.95013	210.0
841	2.10537e+02	8.41000e+02	2.94979	210.5
842	2.11051e+02	8.42000e+02	2.94944	211.0
843	2.11561e+02	8.43000e+02	2.9491	211.5
844	2.12054e+02	8.44000e+02	2.94876	212.0
845	2.12565e+02	8.45000e+02	2.94843	212.5
846	2.13075e+02	8.46000e+02	2.9481	213.0
847	2.13567e+02	8.47000e+02	2.94778	213.5
848	2.14077e+02	8.48000e+02	2.94747	214.0
849	2.14583e+02	8.49000e+02	2.94714	214.5
850	2.15080e+02	8.50000e+02	2.94682	215.0
851	2.15581e+02	8.51000e+02	2.94648	215.5
852	2.16086e+02	8.52000e+02	2.94614	216.0
853	2.16585e+02	8.53000e+02	2.94579	216.5
854	2.17093e+02	8.54000e+02	2.94544	217.0
855	2.17593e+02	8.55000e+02	2.94509	217.5
856	2.18097e+02	8.56000e+02	2.94472	218.0
857	2.18601e+02	8.57000e+02	2.94437	218.5
858	2.19121e+02	8.58000e+02	2.94401	219.0
859	2.19619e+02	8.59000e+02	2.94366	219.5
860	2.20128e+02	8.60000e+02	2.94331	220.0
861	2.20632e+02	8.61000e+02	2.94295	220.5
862	2.21142e+02	8.62000e+02	2.9426	221.0
863	2.21641e+02	8.63000e+02	2.94225	221.5
864	2.22152e+02	8.64000e+02	2.9419	222.0
865	2.22653e+02	8.65000e+02	2.94154	222.5
866	2.23159e+02	8.66000e+02	2.94118	223.0
867	2.23659e+02	8.67000e+02	2.94082	223.5
868	2.24168e+02	8.68000e+02	2.94044	224.0
869	2.24685e+02	8.69000e+02	2.94007	224.5
870	2.25186e+02	8.70000e+02	2.9397	225.0
871	2.25684e+02	8.71000e+02	2.93933	225.5
872	2.26186e+02	8.72000e+02	2.93895	226.0
873	2.26693e+02	8.73000e+02	2.93858	226.5
874	2.27200e+02	8.74000e+02	2.93822	227.0
875	2.27696e+02	8.75000e+02	2.93786	227.5
876	2.28210e+02	8.76000e+02	2.93751	228.0
877	2.28719e+02	8.77000e+02	2.93715	228.5
878	2.29225e+02	8.78000e+02	2.93679	229.0
879	2.29733e+02	8.79000e+02	2.93643	229.5
880	2.30232e+02	8.80000e+02	2.93608	230.0
881	2.30738e+02	8.81000e+02	2.93573	230.5
882	2.31249e+02	8.82000e+02	2.93537	231.0
883	2.31749e+02	8.83000e+02	2.93502	231.5
884	2.32276e+02	8.84000e+02	2.93465	232.0
885	2.32782e+02	8.85000e+02	2.93429	232.5
886	2.33284e+02	8.86000e+02	2.93392	233.0
887	2.33783e+02	8.87000e+02	2.93355	233.5
888	2.34304e+02	8.88000e+02	2.93316	234.0
889	2.34805e+02	8.89000e+02	2.93278	234.5
890	2.35320e+02	8.90000e+02	2.93239	235.0
891	2.35820e+02	8.91000e+02	2.932	235.5
892	2.36336e+02	8.92000e+02	2.93159	236.0
893	2.36837e+02	8.93000e+02	2.93119	236.5
894	2.37351e+02	8.94000e+02	2.93078	237.0
895	2.37849e+02	8.95000e+02	2.93037	237.5
896	2.38357e+02	8.96000e+02	2.92996	238.0
897	2.38858e+02	8.97000e+02	2.92956	238.5
898	2.39369e+02	8.98000e+02	2.92917	239.0
899	2.39874e+02	8.99000e+02	2.92878	239.5
900	2.40392e+02	9.00000e+02	2.92841	240.0
901	2.40894e+02	9.01000e+02	2.92803	240.5
902	2.41400e+02	9.02000e+02	2.92764	241.0
903	2.41898e+02	9.03000e+02	2.92724	241.5
904	2.42401e+02	9.04000e+02	2.92683	242.0
905	2.42913e+02	9.05000e+02	2.92644	242.5
906	2.43413e+02	9.06000e+02	2.92605	243.0
907	2.43916e+02	9.07000e+02	2.92566	243.5
908	2.44414e+02	9.08000e+02	2.92528	244.0
909	2.44924e+02	9.09000e+02	2.92489	244.5
910	2.45426e+02	9.10000e+02	2.9245	245.0
911	2.45925e+02	9.11000e+02	2.92411	245.5
912	2.46442e+02	9.12000e+02	2.92372	246.0
913	2.46948e+02	9.13000e+02	2.92333	246.5
914	2.47446e+02	9.14000e+02	2.92294	247.0
915	2.47954e+02	9.15000e+02	2.92255	247.5
916	2.48458e+02	9.16000e+02	2.92216	248.0
917	2.48966e+02	9.17000e+02	2.92177	248.5
918	2.49469e+02	9.18000e+02	2.92138	249.0
919	2.49975e+02	9.19000e+02	2.92099	249.5
920	2.50479e+02	9.20000e+02	2.92061	250.0
921	2.50979e+02	9.21000e+02	2.92023	250.5
922	2.51487e+02	9.22000e+02	2.91986	251.0
923	2.51989e+02	9.23000e+02	2.91948	251.5
924	2.52502e+02	9.24000e+02	2.91909	252.0
925	2.52994e+02	9.25000e+02	2.91869	252.5
926	2.53512e+02	9.26000e+02	2.91827	253.0
927	2.54013e+02	9.27000e+02	2.91785	253.5
928	2.54519e+02	9.28000e+02	2.91738	254.0
929	2.55025e+02	9.29000e+02	2.91693	254.5
930	2.55530e+02	9.30000e+02	2.91648	255.0
931	2.56046e+02	9.31000e+02	2.91604	255.5
932	2.56560e+02	9.32000e+02	2.91557	256.0
933	2.57062e+02	9.33000e+02	2.91512	256.5
934	2.57573e+02	9.34000e+02	2.91466	257.0
935	2.58086e+02	9.35000e+02	2.9142	257.5
936	2.58599e+02	9.36000e+02	2.91374	258.0
937	2.59095e+02	9.37000e+02	2.91328	258.5
938	2.59596e+02	9.38000e+02	2.91282	259.0
939	2.60106e+02	9.39000e+02	2.91235	259.5
940	2.60614e+02	9.40000e+02	2.91188	260.0
941	2.61111e+02	9.41000e+02	2.91141	260.5
942	2.61631e+02	9.42000e+02	2.91093	261.0
943	2.62126e+02	9.43000e+02	2.91045	261.5
944	2.62646e+02	9.44000e+02	2.90995	262.0
945	2.63147e+02	9.45000e+02	2.90946	262.5
946	2.63656e+02	9.46000e+02	2.90897	263.0
947	2.64161e+02	9.47000e+02	2.90848	263.5
948	2.64657e+02	9.48000e+02	2.90799	264.0
949	2.65161e+02	9.49000e+02	2.90751	264.5
950	2.65663e+02	9.50000e+02	2.90703	265.0
951	2.66171e+02	9.51000e+02	2.90655	265.5
952	2.66665e+02	9.52000e+02	2.9061	266.0
953	2.67178e+02	9.53000e+02	2.90564	266.5
954	2.67688e+02	9.54000e+02	2.90518	267.0
955	2.68192e+02	9.55000e+02	2.90473	267.5
956	2.68702e+02	9.56000e+02	2.9043	268.0
957	2.69218e+02	9.57000e+02	2.90386	268.5
958	2.69717e+02	9.58000e+02	2.90343	269.0
959	2.70226e+02	9.59000e+02	2.90299	269.5
960	2.70731e+02	9.60000e+02	2.90256	270.0
961	2.71247e+02	9.61000e+02	2.90211	270.5
962	2.71729e+02	9.62000e+02	2.90166	271.0
963	2.72253e+02	9.63000e+02	2.9012	271.5
964	2.72761e+02	9.64000e+02	2.90071	272.0
965	2.73273e+02	9.65000e+02	2.90023	272.5
966	2.73786e+02	9.66000e+02	2.89974	273.0
967	2.74307e+02	9.67000e+02	2.89925	273.5
968	2.74813e+02	9.68000e+02	2.89874	274.0
969	2.75337e+02	9.69000e+02	2.89823	274.5
970	2.75834e+02	9.70000e+02	2.89772	275.0
971	2.76351e+02	9.71000e+02	2.8972	275.5
972	2.76860e+02	9.72000e+02	2.89665	276.0
973	2.77367e+02	9.73000e+02	2.89611	276.5
974	2.77882e+02	9.74000e+02	2.89556	277.0
975	2.78377e+02	9.75000e+02	2.89499	277.5
976	2.78888e+02	9.76000e+02	2.89436	278.0
977	2.79401e+02	9.77000e+02	2.89372	278.5
978	2.79892e+02	9.78000e+02	2.89306	279.0
979	2.80401e+02	9.79000e+02	2.89238	279.5
980	2.80898e+02	9.80000e+02	2.89163	280.0
981	2.81419e+02	9.81000e+02	2.89092	280.5
982	2.81925e+02	9.82000e+02	2.89021	281.0
983	2.82421e+02	9.83000e+02	2.88951	281.5
984	2.82937e+02	9.84000e+02	2.88881	282.0
985	2.83438e+02	9.85000e+02	2.88811	282.5
986	2.83931e+02	9.86000e+02	2.88741	283.0
987	2.84431e+02	9.87000e+02	2.88671	283.5
988	2.84928e+02	9.88000e+02	2.88601	284.0
989	2.85428e+02	9.89000e+02	2.88531	284.5
990	2.85926e+02	9.90000e+02	2.88459	285.0
991	2.86424e+02	9.91000e+02	2.88388	285.5
992	2.86935e+02	9.92000e+02	2.88314	286.0
993	2.87444e+02	9.93000e+02	2.88241	286.5
994	2.87942e+02	9.94000e+02	2.88167	287.0
995	2.88443e+02	9.95000e+02	2.88093	287.5
996	2.88949e+02	9.96000e+02	2.88018	288.0
997	2.89464e+02	9.97000e+02	2.87944	288.5
998	2.89970e+02	9.98000e+02	2.87871	289.0
999	2.90468e+02	9.99000e+02	2.87798	289.5
1000	2.90975e+02	1.00000e+03	2.87726	290.0
1001	2.91493e+02	1.00100e+03	2.87655	290.5
1002	2.92013e+02	1.00200e+03	2.87582	291.0
1003	2.92546e+02	1.00300e+03	2.87509	291.5
1004	2.93075e+02	1.00400e+03	2.87436	292.0
1005	2.93570e+02	1.00500e+03	2.87361	292.5
1006	2.94091e+02	1.00600e+03	2.87284	293.0
1007	2.94604e+02	1.00700e+03	2.87207	293.5
1008	2.95139e+02	1.00800e+03	2.87124	294.0
1009	2.95631e+02	1.00900e+03	2.87042	294.5
1010	2.96171e+02	1.01000e+03	2.86959	295.0
1011	2.96707e+02	1.01100e+03	2.86876	295.5
1012	2.97221e+02	1.01200e+03	2.86788	296.0
1013	2.97743e+02	1.01300e+03	2.86701	296.5
1014	2.98251e+02	1.01400e+03	2.86613	297.0
1015	2.98789e+02	1.01500e+03	2.86525	297.5
1016	2.99321e+02	1.01600e+03	2.86434	298.0
1017	2.99817e+02	1.01700e+03	2.86342	298.5
1018	3.00301e+02	1.01800e+03	2.86249	299.0
1019	3.00792e+02	1.01900e+03	2.86155	299.5
1020	3.01296e+02	1.02000e+03	2.86057	300.0
1021	3.01894e+02	1.02100e+03	2.8596	300.5
1022	3.02410e+02	1.02200e+03	2.85863	301.0
1023	3.02945e+02	1.02300e+03	2.85764	301.5
1024	3.03477e+02	1.02400e+03	2.85661	302.0
1025	3.03967e+02	1.02500e+03	2.85558	302.5
1026	3.04481e+02	1.02600e+03	2.85452	303.0
1027	3.05003e+02	1.02700e+03	2.85346	303.5
1028	3.05495e+02	1.02800e+03	2.85233	304.0
1029	3.06033e+02	1.02900e+03	2.8512	304.5
1030	3.06539e+02	1.03000e+03	2.85007	305.0
1031	3.07035e+02	1.03100e+03	2.84893	305.5
1032	3.07511e+02	1.03200e+03	2.84772	306.0
1033	3.08005e+02	1.03300e+03	2.84652	306.5
1034	3.08545e+02	1.03400e+03	2.84529	307.0
1035	3.09067e+02	1.03500e+03	2.84404	307.5
1036	3.09608e+02	1.03600e+03	2.8427	308.0
1037	3.10150e+02	1.03700e+03	2.84135	308.5
1038	3.10693e+02	1.03800e+03	2.83996	309.0
1039	3.11161e+02	1.03900e+03	2.83855	309.5
1040	3.11664e+02	1.04000e+03	2.837	310.0
1041	3.12202e+02	1.04100e+03	2.8355	310.5
1042	3.12704e+02	1.04200e+03	2.83398	311.0
1043	3.13192e+02	1.04300e+03	2.83245	311.5
1044	3.13680e+02	1.04400e+03	2.83086	312.0
1045	3.14190e+02	1.04500e+03	2.8293	312.5
1046	3.14691e+02	1.04600e+03	2.82774	313.0
1047	3.15178e+02	1.04700e+03	2.82618	313.5
1048	3.15650e+02	1.04800e+03	2.82462	314.0
1049	3.16160e+02	1.04900e+03	2.82307	314.5
1050	3.16649e+02	1.05000e+03	2.82152	315.0
1051	3.17123e+02	1.05100e+03	2.81997	315.5
1052	3.17608e+02	1.05200e+03	2.81843	316.0
1053	3.18100e+02	1.05300e+03	2.81689	316.5
1054	3.18608e+02	1.05400e+03	2.81534	317.0
1055	3.19081e+02	1.05500e+03	2.8138	317.5
1056	3.19589e+02	1.05600e+03	2.81225	318.0
1057	3.20070e+02	1.05700e+03	2.8107	318.5
1058	3.20551e+02	1.05800e+03	2.80916	319.0
1059	3.21034e+02	1.05900e+03	2.80761	319.5
1060	3.21529e+02	1.06000e+03	2.80605	320.0
1061	3.22020e+02	1.06100e+03	2.80448	320.5
1062	3.22511e+02	1.06200e+03	2.8029	321.0
1063	3.23006e+02	1.06300e+03	2.8013	321.5
1064	3.23501e+02	1.06400e+03	2.79967	322.0
1065	3.23997e+02	1.06500e+03	2.79804	322.5
1066	3.24488e+02	1.06600e+03	2.79641	323.0
1067	3.24970e+02	1.06700e+03	2.79478	323.5
1068	3.25454e+02	1.06800e+03	2.79311	324.0
1069	3.25961e+02	1.06900e+03	2.79144	324.5
1070	3.26453e+02	1.07000e+03	2.78976	325.0
1071	3.26948e+02	1.07100e+03	2.78807	325.5
1072	3.27441e+02	1.07200e+03	2.78634	326.0
1073	3.27940e+02	1.07300e+03	2.78461	326.5
1074	3.28454e+02	1.07400e+03	2.78287	327.0
1075	3.28952e+02	1.07500e+03	2.78111	327.5
1076	3.29477e+02	1.07600e+03	2.7793	328.0
1077	3.29995e+02	1.07700e+03	2.77749	328.5
1078	3.30496e+02	1.07800e+03	2.77566	329.0
1079	3.31016e+02	1.07900e+03	2.77382	329.5
1080	3.31517e+02	1.08000e+03	2.77191	330.0
1081	3.32012e+02	1.08100e+03	2.77	330.5
1082	3.32503e+02	1.08200e+03	2.76807	331.0
1083	3.33024e+02	1.08300e+03	2.76612	331.5
1084	3.33520e+02	1.08400e+03	2.76408	332.0
1085	3.34021e+02	1.08500e+03	2.76203	332.5
1086	3.34509e+02	1.08600e+03	2.75995	333.0
1087	3.35007e+02	1.08700e+03	2.75784	333.5
1088	3.35504e+02	1.08800e+03	2.75561	334.0
1089	3.36016e+02	1.08900e+03	2.75339	334.5
1090	3.36512e+02	1.09000e+03	2.75114	335.0
1091	3.37015e+02	1.09100e+03	2.74886	335.5
1092	3.37524e+02	1.09200e+03	2.74644	336.0
1093	3.38034e+02	1.09300e+03	2.74402	336.5
1094	3.38546e+02	1.09400e+03	2.74155	337.0
1095	3.39042e+02	1.09500e+03	2.73905	337.5
1096	3.39545e+02	1.09600e+03	2.73635	338.0
1097	3.40037e+02	1.09700e+03	2.73368	338.5
1098	3.40531e+02	1.09800e+03	2.73096	339.0
1099	3.41044e+02	1.09900e+03	2.72821	339.5
1100	3.41537e+02	1.10000e+03	2.72525	340.0
1101	3.42029e+02	1.10100e+03	2.7223	340.5
1102	3.42544e+02	1.10200e+03	2.7193	341.0
1103	3.43059e+02	1.10300e+03	2.71624	341.5
1104	3.43569e+02	1.10400e+03	2.71298	342.0
1105	3.44084e+02	1.10500e+03	2.70975	342.5
1106	3.44611e+02	1.10600e+03	2.70649	343.0
1107	3.45149e+02	1.10700e+03	2.70316	343.5
1108	3.45654e+02	1.10800e+03	2.6995	344.0
1109	3.46131e+02	1.10900e+03	2.69574	344.5
1110	3.46636e+02	1.11000e+03	2.69176	345.0
1111	3.47149e+02	1.11100e+03	2.6876	345.5
1112	3.47640e+02	1.11200e+03	2.68266	346.0
1113	3.48135e+02	1.11300e+03	2.67778	346.5
1114	3.48632e+02	1.11400e+03	2.67273	347.0
1115	3.49120e+02	1.11500e+03	2.66754	347.5
1116	3.49627e+02	1.11600e+03	2.66156	348.0
1117	3.50137e+02	1.11700e+03	2.65582	348.5
1118	3.50645e+02	1.11800e+03	2.65004	349.0
1119	3.51135e+02	1.11900e+03	2.64419	349.5
1120	3.51625e+02	1.12000e+03	2.63795	350.0
1121	3.52105e+02	1.12100e+03	2.63177	350.5
1122	3.52578e+02	1.12200e+03	2.6255	351.0
1123	3.53069e+02	1.12300e+03	2.61914	351.5
1124	3.53565e+02	1.12400e+03	2.61238	352.0
1125	3.54071e+02	1.12500e+03	2.60562	352.5
1126	3.54552e+02	1.12600e+03	2.59873	353.0
1127	3.55044e+02	1.12700e+03	2.59171	353.5
1128	3.55548e+02	1.12800e+03	2.5841	354.0
1129	3.56036e+02	1.12900e+03	2.57652	354.5
1130	3.56534e+02	1.13000e+03	2.56876	355.0
1131	3.57024e+02	1.13100e+03	2.56085	355.5
1132	3.57519e+02	1.13200e+03	2.55216	356.0
1133	3.58011e+02	1.13300e+03	2.54352	356.5
1134	3.58499e+02	1.13400e+03	2.53468	357.0
1135	3.58990e+02	1.13500e+03	2.52567	357.5
1136	3.59470e+02	1.13600e+03	2.51575	358.0
1137	3.59976e+02	1.13700e+03	2.50596	358.5
1138	3.60451e+02	1.13800e+03	2.496	359.0
1139	3.60929e+02	1.13900e+03	2.48586	359.5
1140	3.61421e+02	1.14000e+03	2.47483	360.0
1141	3.61913e+02	1.14100e+03	2.46389	360.5
1142	3.62409e+02	1.14200e+03	2.45273	361.0
