index	ts	t	weight	tr
[#]	[°C]	[s]	[mg]	[°C]
843	1.29966e+02	8.43000e+02	3.02592e+00	1.30500e+02
844	1.30132e+02	8.44000e+02	3.02590e+00	1.30667e+02
845	1.30294e+02	8.45000e+02	3.02587e+00	1.30833e+02
846	1.30475e+02	8.46000e+02	3.02585e+00	1.31000e+02
847	1.30637e+02	8.47000e+02	3.02582e+00	1.31167e+02
848	1.30798e+02	8.48000e+02	3.02580e+00	1.31333e+02
849	1.30956e+02	8.49000e+02	3.02577e+00	1.31500e+02
850	1.31137e+02	8.50000e+02	3.02576e+00	1.31667e+02
851	1.31305e+02	8.51000e+02	3.02574e+00	1.31833e+02
852	1.31471e+02	8.52000e+02	3.02573e+00	1.32000e+02
853	1.31636e+02	8.53000e+02	3.02572e+00	1.32167e+02
854	1.31798e+02	8.54000e+02	3.02570e+00	1.32333e+02
855	1.31964e+02	8.55000e+02	3.02569e+00	1.32500e+02
856	1.32140e+02	8.56000e+02	3.02567e+00	1.32667e+02
857	1.32315e+02	8.57000e+02	3.02565e+00	1.32833e+02
858	1.32483e+02	8.58000e+02	3.02563e+00	1.33000e+02
859	1.32652e+02	8.59000e+02	3.02560e+00	1.33167e+02
860	1.32812e+02	8.60000e+02	3.02556e+00	1.33333e+02
861	1.32981e+02	8.61000e+02	3.02552e+00	1.33500e+02
862	1.33154e+02	8.62000e+02	3.02548e+00	1.33667e+02
863	1.33323e+02	8.63000e+02	3.02543e+00	1.33833e+02
864	1.33485e+02	8.64000e+02	3.02536e+00	1.34000e+02
865	1.33650e+02	8.65000e+02	3.02529e+00	1.34167e+02
866	1.33802e+02	8.66000e+02	3.02522e+00	1.34333e+02
867	1.33992e+02	8.67000e+02	3.02516e+00	1.34500e+02
868	1.34150e+02	8.68000e+02	3.02509e+00	1.34667e+02
869	1.34314e+02	8.69000e+02	3.02503e+00	1.34833e+02
870	1.34484e+02	8.70000e+02	3.02496e+00	1.35000e+02
871	1.34635e+02	8.71000e+02	3.02491e+00	1.35167e+02
872	1.34817e+02	8.72000e+02	3.02485e+00	1.35333e+02
873	1.34987e+02	8.73000e+02	3.02480e+00	1.35500e+02
874	1.35155e+02	8.74000e+02	3.02475e+00	1.35667e+02
875	1.35331e+02	8.75000e+02	3.02469e+00	1.35833e+02
876	1.35495e+02	8.76000e+02	3.02464e+00	1.36000e+02
877	1.35654e+02	8.77000e+02	3.02459e+00	1.36167e+02
878	1.35822e+02	8.78000e+02	3.02454e+00	1.36333e+02
879	1.35985e+02	8.79000e+02	3.02449e+00	1.36500e+02
880	1.36160e+02	8.80000e+02	3.02445e+00	1.36667e+02
881	1.36324e+02	8.81000e+02	3.02441e+00	1.36833e+02
882	1.36491e+02	8.82000e+02	3.02437e+00	1.37000e+02
883	1.36657e+02	8.83000e+02	3.02432e+00	1.37167e+02
884	1.36818e+02	8.84000e+02	3.02429e+00	1.37333e+02
885	1.36983e+02	8.85000e+02	3.02425e+00	1.37500e+02
886	1.37164e+02	8.86000e+02	3.02421e+00	1.37667e+02
887	1.37337e+02	8.87000e+02	3.02418e+00	1.37833e+02
888	1.37499e+02	8.88000e+02	3.02415e+00	1.38000e+02
889	1.37659e+02	8.89000e+02	3.02412e+00	1.38167e+02
890	1.37827e+02	8.90000e+02	3.02409e+00	1.38333e+02
891	1.38003e+02	8.91000e+02	3.02406e+00	1.38500e+02
892	1.38166e+02	8.92000e+02	3.02403e+00	1.38667e+02
893	1.38334e+02	8.93000e+02	3.02400e+00	1.38833e+02
894	1.38502e+02	8.94000e+02	3.02397e+00	1.39000e+02
895	1.38678e+02	8.95000e+02	3.02394e+00	1.39167e+02
896	1.38834e+02	8.96000e+02	3.02390e+00	1.39333e+02
897	1.39012e+02	8.97000e+02	3.02386e+00	1.39500e+02
898	1.39172e+02	8.98000e+02	3.02381e+00	1.39667e+02
899	1.39337e+02	8.99000e+02	3.02375e+00	1.39833e+02
900	1.39505e+02	9.00000e+02	3.02368e+00	1.40000e+02
901	1.39674e+02	9.01000e+02	3.02361e+00	1.40167e+02
902	1.39848e+02	9.02000e+02	3.02353e+00	1.40333e+02
903	1.40007e+02	9.03000e+02	3.02345e+00	1.40500e+02
904	1.40184e+02	9.04000e+02	3.02336e+00	1.40667e+02
905	1.40348e+02	9.05000e+02	3.02328e+00	1.40833e+02
906	1.40520e+02	9.06000e+02	3.02320e+00	1.41000e+02
907	1.40691e+02	9.07000e+02	3.02312e+00	1.41167e+02
908	1.40844e+02	9.08000e+02	3.02305e+00	1.41333e+02
909	1.41021e+02	9.09000e+02	3.02298e+00	1.41500e+02
910	1.41192e+02	9.10000e+02	3.02291e+00	1.41667e+02
911	1.41364e+02	9.11000e+02	3.02284e+00	1.41833e+02
912	1.41520e+02	9.12000e+02	3.02278e+00	1.42000e+02
913	1.41677e+02	9.13000e+02	3.02272e+00	1.42167e+02
914	1.41853e+02	9.14000e+02	3.02266e+00	1.42333e+02
915	1.42033e+02	9.15000e+02	3.02260e+00	1.42500e+02
916	1.42188e+02	9.16000e+02	3.02253e+00	1.42667e+02
917	1.42350e+02	9.17000e+02	3.02245e+00	1.42833e+02
918	1.42529e+02	9.18000e+02	3.02236e+00	1.43000e+02
919	1.42698e+02	9.19000e+02	3.02226e+00	1.43167e+02
920	1.42877e+02	9.20000e+02	3.02212e+00	1.43333e+02
921	1.43048e+02	9.21000e+02	3.02199e+00	1.43500e+02
922	1.43202e+02	9.22000e+02	3.02187e+00	1.43667e+02
923	1.43374e+02	9.23000e+02	3.02175e+00	1.43833e+02
924	1.43546e+02	9.24000e+02	3.02164e+00	1.44000e+02
925	1.43707e+02	9.25000e+02	3.02155e+00	1.44167e+02
926	1.43874e+02	9.26000e+02	3.02148e+00	1.44333e+02
927	1.44033e+02	9.27000e+02	3.02143e+00	1.44500e+02
928	1.44202e+02	9.28000e+02	3.02148e+00	1.44667e+02
929	1.44373e+02	9.29000e+02	3.02150e+00	1.44833e+02
930	1.44530e+02	9.30000e+02	3.02152e+00	1.45000e+02
931	1.44710e+02	9.31000e+02	3.02155e+00	1.45167e+02
932	1.44885e+02	9.32000e+02	3.02160e+00	1.45333e+02
933	1.45038e+02	9.33000e+02	3.02160e+00	1.45500e+02
934	1.45209e+02	9.34000e+02	3.02158e+00	1.45667e+02
935	1.45372e+02	9.35000e+02	3.02155e+00	1.45833e+02
936	1.45532e+02	9.36000e+02	3.02142e+00	1.46000e+02
937	1.45713e+02	9.37000e+02	3.02132e+00	1.46167e+02
938	1.45880e+02	9.38000e+02	3.02122e+00	1.46333e+02
939	1.46042e+02	9.39000e+02	3.02110e+00	1.46500e+02
940	1.46210e+02	9.40000e+02	3.02095e+00	1.46667e+02
941	1.46390e+02	9.41000e+02	3.02081e+00	1.46833e+02
942	1.46542e+02	9.42000e+02	3.02068e+00	1.47000e+02
943	1.46719e+02	9.43000e+02	3.02056e+00	1.47167e+02
944	1.46887e+02	9.44000e+02	3.02044e+00	1.47333e+02
945	1.47049e+02	9.45000e+02	3.02032e+00	1.47500e+02
946	1.47222e+02	9.46000e+02	3.02021e+00	1.47667e+02
947	1.47391e+02	9.47000e+02	3.02010e+00	1.47833e+02
948	1.47548e+02	9.48000e+02	3.02000e+00	1.48000e+02
949	1.47732e+02	9.49000e+02	3.01990e+00	1.48167e+02
950	1.47892e+02	9.50000e+02	3.01980e+00	1.48333e+02
951	1.48059e+02	9.51000e+02	3.01971e+00	1.48500e+02
952	1.48228e+02	9.52000e+02	3.01962e+00	1.48667e+02
953	1.48409e+02	9.53000e+02	3.01953e+00	1.48833e+02
954	1.48565e+02	9.54000e+02	3.01945e+00	1.49000e+02
955	1.48738e+02	9.55000e+02	3.01937e+00	1.49167e+02
956	1.48905e+02	9.56000e+02	3.01928e+00	1.49333e+02
957	1.49064e+02	9.57000e+02	3.01918e+00	1.49500e+02
958	1.49242e+02	9.58000e+02	3.01908e+00	1.49667e+02
959	1.49403e+02	9.59000e+02	3.01896e+00	1.49833e+02
960	1.49587e+02	9.60000e+02	3.01881e+00	1.50000e+02
961	1.49743e+02	9.61000e+02	3.01867e+00	1.50167e+02
962	1.49912e+02	9.62000e+02	3.01853e+00	1.50333e+02
963	1.50084e+02	9.63000e+02	3.01839e+00	1.50500e+02
964	1.50247e+02	9.64000e+02	3.01825e+00	1.50667e+02
965	1.50406e+02	9.65000e+02	3.01812e+00	1.50833e+02
966	1.50576e+02	9.66000e+02	3.01801e+00	1.51000e+02
967	1.50744e+02	9.67000e+02	3.01790e+00	1.51167e+02
968	1.50908e+02	9.68000e+02	3.01784e+00	1.51333e+02
969	1.51084e+02	9.69000e+02	3.01776e+00	1.51500e+02
970	1.51255e+02	9.70000e+02	3.01768e+00	1.51667e+02
971	1.51417e+02	9.71000e+02	3.01761e+00	1.51833e+02
972	1.51595e+02	9.72000e+02	3.01754e+00	1.52000e+02
973	1.51761e+02	9.73000e+02	3.01746e+00	1.52167e+02
974	1.51926e+02	9.74000e+02	3.01737e+00	1.52333e+02
975	1.52089e+02	9.75000e+02	3.01727e+00	1.52500e+02
976	1.52265e+02	9.76000e+02	3.01715e+00	1.52667e+02
977	1.52418e+02	9.77000e+02	3.01702e+00	1.52833e+02
978	1.52593e+02	9.78000e+02	3.01690e+00	1.53000e+02
979	1.52767e+02	9.79000e+02	3.01677e+00	1.53167e+02
980	1.52943e+02	9.80000e+02	3.01662e+00	1.53333e+02
981	1.53091e+02	9.81000e+02	3.01649e+00	1.53500e+02
982	1.53258e+02	9.82000e+02	3.01636e+00	1.53667e+02
983	1.53428e+02	9.83000e+02	3.01624e+00	1.53833e+02
984	1.53608e+02	9.84000e+02	3.01612e+00	1.54000e+02
985	1.53759e+02	9.85000e+02	3.01600e+00	1.54167e+02
986	1.53929e+02	9.86000e+02	3.01588e+00	1.54333e+02
987	1.54101e+02	9.87000e+02	3.01577e+00	1.54500e+02
988	1.54262e+02	9.88000e+02	3.01567e+00	1.54667e+02
989	1.54436e+02	9.89000e+02	3.01556e+00	1.54833e+02
990	1.54619e+02	9.90000e+02	3.01547e+00	1.55000e+02
991	1.54772e+02	9.91000e+02	3.01538e+00	1.55167e+02
992	1.54944e+02	9.92000e+02	3.01530e+00	1.55333e+02
993	1.55118e+02	9.93000e+02	3.01522e+00	1.55500e+02
994	1.55283e+02	9.94000e+02	3.01514e+00	1.55667e+02
995	1.55444e+02	9.95000e+02	3.01505e+00	1.55833e+02
996	1.55621e+02	9.96000e+02	3.01496e+00	1.56000e+02
997	1.55784e+02	9.97000e+02	3.01486e+00	1.56167e+02
998	1.55957e+02	9.98000e+02	3.01474e+00	1.56333e+02
999	1.56129e+02	9.99000e+02	3.01462e+00	1.56500e+02
1000	1.56286e+02	1.00000e+03	3.01447e+00	1.56667e+02
1001	1.56462e+02	1.00100e+03	3.01433e+00	1.56833e+02
1002	1.56615e+02	1.00200e+03	3.01419e+00	1.57000e+02
1003	1.56788e+02	1.00300e+03	3.01405e+00	1.57167e+02
1004	1.56960e+02	1.00400e+03	3.01391e+00	1.57333e+02
1005	1.57115e+02	1.00500e+03	3.01377e+00	1.57500e+02
1006	1.57274e+02	1.00600e+03	3.01364e+00	1.57667e+02
1007	1.57466e+02	1.00700e+03	3.01351e+00	1.57833e+02
1008	1.57630e+02	1.00800e+03	3.01339e+00	1.58000e+02
1009	1.57796e+02	1.00900e+03	3.01326e+00	1.58167e+02
1010	1.57965e+02	1.01000e+03	3.01313e+00	1.58333e+02
1011	1.58135e+02	1.01100e+03	3.01299e+00	1.58500e+02
1012	1.58295e+02	1.01200e+03	3.01284e+00	1.58667e+02
1013	1.58464e+02	1.01300e+03	3.01269e+00	1.58833e+02
1014	1.58635e+02	1.01400e+03	3.01253e+00	1.59000e+02
1015	1.58800e+02	1.01500e+03	3.01237e+00	1.59167e+02
1016	1.58977e+02	1.01600e+03	3.01220e+00	1.59333e+02
1017	1.59137e+02	1.01700e+03	3.01204e+00	1.59500e+02
1018	1.59308e+02	1.01800e+03	3.01188e+00	1.59667e+02
1019	1.59471e+02	1.01900e+03	3.01171e+00	1.59833e+02
1020	1.59643e+02	1.02000e+03	3.01156e+00	1.60000e+02
1021	1.59811e+02	1.02100e+03	3.01141e+00	1.60167e+02
1022	1.59977e+02	1.02200e+03	3.01127e+00	1.60333e+02
1023	1.60138e+02	1.02300e+03	3.01113e+00	1.60500e+02
1024	1.60307e+02	1.02400e+03	3.01101e+00	1.60667e+02
1025	1.60474e+02	1.02500e+03	3.01089e+00	1.60833e+02
1026	1.60646e+02	1.02600e+03	3.01076e+00	1.61000e+02
1027	1.60813e+02	1.02700e+03	3.01064e+00	1.61167e+02
1028	1.60985e+02	1.02800e+03	3.01052e+00	1.61333e+02
1029	1.61153e+02	1.02900e+03	3.01039e+00	1.61500e+02
1030	1.61312e+02	1.03000e+03	3.01025e+00	1.61667e+02
1031	1.61480e+02	1.03100e+03	3.01010e+00	1.61833e+02
1032	1.61658e+02	1.03200e+03	3.00991e+00	1.62000e+02
1033	1.61825e+02	1.03300e+03	3.00972e+00	1.62167e+02
1034	1.61986e+02	1.03400e+03	3.00954e+00	1.62333e+02
1035	1.62158e+02	1.03500e+03	3.00935e+00	1.62500e+02
1036	1.62339e+02	1.03600e+03	3.00914e+00	1.62667e+02
1037	1.62507e+02	1.03700e+03	3.00894e+00	1.62833e+02
1038	1.62659e+02	1.03800e+03	3.00873e+00	1.63000e+02
1039	1.62823e+02	1.03900e+03	3.00853e+00	1.63167e+02
1040	1.63002e+02	1.04000e+03	3.00833e+00	1.63333e+02
1041	1.63172e+02	1.04100e+03	3.00812e+00	1.63500e+02
1042	1.63340e+02	1.04200e+03	3.00791e+00	1.63667e+02
1043	1.63491e+02	1.04300e+03	3.00771e+00	1.63833e+02
1044	1.63668e+02	1.04400e+03	3.00750e+00	1.64000e+02
1045	1.63840e+02	1.04500e+03	3.00730e+00	1.64167e+02
1046	1.64003e+02	1.04600e+03	3.00709e+00	1.64333e+02
1047	1.64170e+02	1.04700e+03	3.00688e+00	1.64500e+02
1048	1.64342e+02	1.04800e+03	3.00668e+00	1.64667e+02
1049	1.64507e+02	1.04900e+03	3.00646e+00	1.64833e+02
1050	1.64672e+02	1.05000e+03	3.00624e+00	1.65000e+02
1051	1.64838e+02	1.05100e+03	3.00603e+00	1.65167e+02
1052	1.65009e+02	1.05200e+03	3.00580e+00	1.65333e+02
1053	1.65184e+02	1.05300e+03	3.00558e+00	1.65500e+02
1054	1.65346e+02	1.05400e+03	3.00535e+00	1.65667e+02
1055	1.65512e+02	1.05500e+03	3.00511e+00	1.65833e+02
1056	1.65688e+02	1.05600e+03	3.00486e+00	1.66000e+02
1057	1.65856e+02	1.05700e+03	3.00461e+00	1.66167e+02
1058	1.66014e+02	1.05800e+03	3.00435e+00	1.66333e+02
1059	1.66195e+02	1.05900e+03	3.00409e+00	1.66500e+02
1060	1.66347e+02	1.06000e+03	3.00380e+00	1.66667e+02
1061	1.66516e+02	1.06100e+03	3.00353e+00	1.66833e+02
1062	1.66688e+02	1.06200e+03	3.00326e+00	1.67000e+02
1063	1.66863e+02	1.06300e+03	3.00298e+00	1.67167e+02
1064	1.67024e+02	1.06400e+03	3.00270e+00	1.67333e+02
1065	1.67196e+02	1.06500e+03	3.00243e+00	1.67500e+02
1066	1.67362e+02	1.06600e+03	3.00215e+00	1.67667e+02
1067	1.67538e+02	1.06700e+03	3.00187e+00	1.67833e+02
1068	1.67709e+02	1.06800e+03	3.00159e+00	1.68000e+02
1069	1.67867e+02	1.06900e+03	3.00132e+00	1.68167e+02
1070	1.68037e+02	1.07000e+03	3.00104e+00	1.68333e+02
1071	1.68212e+02	1.07100e+03	3.00075e+00	1.68500e+02
1072	1.68374e+02	1.07200e+03	3.00046e+00	1.68667e+02
1073	1.68538e+02	1.07300e+03	3.00016e+00	1.68833e+02
1074	1.68717e+02	1.07400e+03	2.99985e+00	1.69000e+02
1075	1.68871e+02	1.07500e+03	2.99954e+00	1.69167e+02
1076	1.69046e+02	1.07600e+03	2.99918e+00	1.69333e+02
1077	1.69204e+02	1.07700e+03	2.99884e+00	1.69500e+02
1078	1.69372e+02	1.07800e+03	2.99848e+00	1.69667e+02
1079	1.69540e+02	1.07900e+03	2.99812e+00	1.69833e+02
1080	1.69710e+02	1.08000e+03	2.99772e+00	1.70000e+02
1081	1.69875e+02	1.08100e+03	2.99733e+00	1.70167e+02
1082	1.70042e+02	1.08200e+03	2.99694e+00	1.70333e+02
1083	1.70213e+02	1.08300e+03	2.99654e+00	1.70500e+02
1084	1.70380e+02	1.08400e+03	2.99613e+00	1.70667e+02
1085	1.70549e+02	1.08500e+03	2.99572e+00	1.70833e+02
1086	1.70717e+02	1.08600e+03	2.99531e+00	1.71000e+02
1087	1.70882e+02	1.08700e+03	2.99489e+00	1.71167e+02
1088	1.71053e+02	1.08800e+03	2.99446e+00	1.71333e+02
1089	1.71221e+02	1.08900e+03	2.99402e+00	1.71500e+02
1090	1.71398e+02	1.09000e+03	2.99358e+00	1.71667e+02
1091	1.71571e+02	1.09100e+03	2.99314e+00	1.71833e+02
1092	1.71736e+02	1.09200e+03	2.99266e+00	1.72000e+02
1093	1.71903e+02	1.09300e+03	2.99220e+00	1.72167e+02
1094	1.72067e+02	1.09400e+03	2.99174e+00	1.72333e+02
1095	1.72238e+02	1.09500e+03	2.99127e+00	1.72500e+02
1096	1.72421e+02	1.09600e+03	2.99080e+00	1.72667e+02
1097	1.72589e+02	1.09700e+03	2.99034e+00	1.72833e+02
1098	1.72749e+02	1.09800e+03	2.98987e+00	1.73000e+02
1099	1.72914e+02	1.09900e+03	2.98941e+00	1.73167e+02
1100	1.73089e+02	1.10000e+03	2.98896e+00	1.73333e+02
1101	1.73255e+02	1.10100e+03	2.98849e+00	1.73500e+02
1102	1.73430e+02	1.10200e+03	2.98803e+00	1.73667e+02
1103	1.73602e+02	1.10300e+03	2.98756e+00	1.73833e+02
1104	1.73769e+02	1.10400e+03	2.98707e+00	1.74000e+02
1105	1.73932e+02	1.10500e+03	2.98658e+00	1.74167e+02
1106	1.74103e+02	1.10600e+03	2.98608e+00	1.74333e+02
1107	1.74268e+02	1.10700e+03	2.98558e+00	1.74500e+02
1108	1.74442e+02	1.10800e+03	2.98504e+00	1.74667e+02
1109	1.74616e+02	1.10900e+03	2.98451e+00	1.74833e+02
1110	1.74778e+02	1.11000e+03	2.98397e+00	1.75000e+02
1111	1.74930e+02	1.11100e+03	2.98343e+00	1.75167e+02
1112	1.75105e+02	1.11200e+03	2.98286e+00	1.75333e+02
1113	1.75272e+02	1.11300e+03	2.98230e+00	1.75500e+02
1114	1.75449e+02	1.11400e+03	2.98174e+00	1.75667e+02
1115	1.75618e+02	1.11500e+03	2.98117e+00	1.75833e+02
1116	1.75780e+02	1.11600e+03	2.98058e+00	1.76000e+02
1117	1.75956e+02	1.11700e+03	2.98000e+00	1.76167e+02
1118	1.76127e+02	1.11800e+03	2.97941e+00	1.76333e+02
1119	1.76295e+02	1.11900e+03	2.97882e+00	1.76500e+02
1120	1.76456e+02	1.12000e+03	2.97821e+00	1.76667e+02
1121	1.76629e+02	1.12100e+03	2.97762e+00	1.76833e+02
1122	1.76794e+02	1.12200e+03	2.97702e+00	1.77000e+02
1123	1.76958e+02	1.12300e+03	2.97642e+00	1.77167e+02
1124	1.77131e+02	1.12400e+03	2.97582e+00	1.77333e+02
1125	1.77297e+02	1.12500e+03	2.97521e+00	1.77500e+02
1126	1.77465e+02	1.12600e+03	2.97460e+00	1.77667e+02
1127	1.77628e+02	1.12700e+03	2.97398e+00	1.77833e+02
1128	1.77788e+02	1.12800e+03	2.97333e+00	1.78000e+02
1129	1.77972e+02	1.12900e+03	2.97269e+00	1.78167e+02
1130	1.78132e+02	1.13000e+03	2.97205e+00	1.78333e+02
1131	1.78296e+02	1.13100e+03	2.97140e+00	1.78500e+02
1132	1.78459e+02	1.13200e+03	2.97075e+00	1.78667e+02
1133	1.78637e+02	1.13300e+03	2.97009e+00	1.78833e+02
1134	1.78809e+02	1.13400e+03	2.96944e+00	1.79000e+02
1135	1.78964e+02	1.13500e+03	2.96879e+00	1.79167e+02
1136	1.79141e+02	1.13600e+03	2.96814e+00	1.79333e+02
1137	1.79311e+02	1.13700e+03	2.96749e+00	1.79500e+02
1138	1.79474e+02	1.13800e+03	2.96682e+00	1.79667e+02
1139	1.79637e+02	1.13900e+03	2.96616e+00	1.79833e+02
1140	1.79804e+02	1.14000e+03	2.96547e+00	1.80000e+02
1141	1.79976e+02	1.14100e+03	2.96478e+00	1.80167e+02
1142	1.80145e+02	1.14200e+03	2.96408e+00	1.80333e+02
1143	1.80310e+02	1.14300e+03	2.96339e+00	1.80500e+02
1144	1.80484e+02	1.14400e+03	2.96266e+00	1.80667e+02
1145	1.80640e+02	1.14500e+03	2.96195e+00	1.80833e+02
1146	1.80828e+02	1.14600e+03	2.96124e+00	1.81000e+02
1147	1.81001e+02	1.14700e+03	2.96052e+00	1.81167e+02
1148	1.81158e+02	1.14800e+03	2.95981e+00	1.81333e+02
1149	1.81329e+02	1.14900e+03	2.95910e+00	1.81500e+02
1150	1.81497e+02	1.15000e+03	2.95839e+00	1.81667e+02
1151	1.81675e+02	1.15100e+03	2.95770e+00	1.81833e+02
1152	1.81838e+02	1.15200e+03	2.95702e+00	1.82000e+02
1153	1.82011e+02	1.15300e+03	2.95633e+00	1.82167e+02
1154	1.82177e+02	1.15400e+03	2.95565e+00	1.82333e+02
1155	1.82358e+02	1.15500e+03	2.95497e+00	1.82500e+02
1156	1.82531e+02	1.15600e+03	2.95431e+00	1.82667e+02
1157	1.82704e+02	1.15700e+03	2.95363e+00	1.82833e+02
1158	1.82872e+02	1.15800e+03	2.95294e+00	1.83000e+02
1159	1.83042e+02	1.15900e+03	2.95226e+00	1.83167e+02
1160	1.83208e+02	1.16000e+03	2.95156e+00	1.83333e+02
1161	1.83376e+02	1.16100e+03	2.95087e+00	1.83500e+02
1162	1.83550e+02	1.16200e+03	2.95018e+00	1.83667e+02
1163	1.83713e+02	1.16300e+03	2.94949e+00	1.83833e+02
1164	1.83900e+02	1.16400e+03	2.94880e+00	1.84000e+02
1165	1.84065e+02	1.16500e+03	2.94812e+00	1.84167e+02
1166	1.84243e+02	1.16600e+03	2.94744e+00	1.84333e+02
1167	1.84401e+02	1.16700e+03	2.94676e+00	1.84500e+02
1168	1.84575e+02	1.16800e+03	2.94609e+00	1.84667e+02
1169	1.84748e+02	1.16900e+03	2.94542e+00	1.84833e+02
1170	1.84915e+02	1.17000e+03	2.94473e+00	1.85000e+02
1171	1.85092e+02	1.17100e+03	2.94405e+00	1.85167e+02
1172	1.85259e+02	1.17200e+03	2.94336e+00	1.85333e+02
1173	1.85445e+02	1.17300e+03	2.94268e+00	1.85500e+02
1174	1.85611e+02	1.17400e+03	2.94200e+00	1.85667e+02
1175	1.85809e+02	1.17500e+03	2.94132e+00	1.85833e+02
1176	1.85971e+02	1.17600e+03	2.94066e+00	1.86000e+02
1177	1.86127e+02	1.17700e+03	2.94000e+00	1.86167e+02
1178	1.86316e+02	1.17800e+03	2.93934e+00	1.86333e+02
1179	1.86477e+02	1.17900e+03	2.93869e+00	1.86500e+02
1180	1.86639e+02	1.18000e+03	2.93805e+00	1.86667e+02
1181	1.86822e+02	1.18100e+03	2.93742e+00	1.86833e+02
1182	1.86994e+02	1.18200e+03	2.93679e+00	1.87000e+02
1183	1.87168e+02	1.18300e+03	2.93616e+00	1.87167e+02
1184	1.87323e+02	1.18400e+03	2.93555e+00	1.87333e+02
1185	1.87515e+02	1.18500e+03	2.93494e+00	1.87500e+02
1186	1.87692e+02	1.18600e+03	2.93432e+00	1.87667e+02
1187	1.87861e+02	1.18700e+03	2.93371e+00	1.87833e+02
1188	1.88029e+02	1.18800e+03	2.93311e+00	1.88000e+02
1189	1.88191e+02	1.18900e+03	2.93251e+00	1.88167e+02
1190	1.88361e+02	1.19000e+03	2.93191e+00	1.88333e+02
1191	1.88545e+02	1.19100e+03	2.93132e+00	1.88500e+02
1192	1.88717e+02	1.19200e+03	2.93074e+00	1.88667e+02
1193	1.88885e+02	1.19300e+03	2.93016e+00	1.88833e+02
1194	1.89065e+02	1.19400e+03	2.92958e+00	1.89000e+02
1195	1.89230e+02	1.19500e+03	2.92901e+00	1.89167e+02
1196	1.89409e+02	1.19600e+03	2.92846e+00	1.89333e+02
1197	1.89580e+02	1.19700e+03	2.92791e+00	1.89500e+02
1198	1.89747e+02	1.19800e+03	2.92737e+00	1.89667e+02
1199	1.89923e+02	1.19900e+03	2.92683e+00	1.89833e+02
1200	1.90095e+02	1.20000e+03	2.92632e+00	1.90000e+02
1201	1.90276e+02	1.20100e+03	2.92580e+00	1.90167e+02
1202	1.90453e+02	1.20200e+03	2.92529e+00	1.90333e+02
1203	1.90604e+02	1.20300e+03	2.92479e+00	1.90500e+02
1204	1.90779e+02	1.20400e+03	2.92432e+00	1.90667e+02
1205	1.90953e+02	1.20500e+03	2.92384e+00	1.90833e+02
1206	1.91113e+02	1.20600e+03	2.92336e+00	1.91000e+02
1207	1.91296e+02	1.20700e+03	2.92289e+00	1.91167e+02
1208	1.91460e+02	1.20800e+03	2.92243e+00	1.91333e+02
1209	1.91630e+02	1.20900e+03	2.92195e+00	1.91500e+02
1210	1.91799e+02	1.21000e+03	2.92147e+00	1.91667e+02
1211	1.91967e+02	1.21100e+03	2.92099e+00	1.91833e+02
1212	1.92125e+02	1.21200e+03	2.92050e+00	1.92000e+02
1213	1.92311e+02	1.21300e+03	2.92001e+00	1.92167e+02
1214	1.92472e+02	1.21400e+03	2.91953e+00	1.92333e+02
